0.0161121490718892,0.0272318578737856,0.0107951569878964,0.00389393390481426
0.0168622900720139,0.0175784574837215,0.010139607751142,0.0035136265505577
0.0142579861750124,0.0239042277795925,0.00733197359178853,0.00223591998987015
0.0221853298685726,0.0275048091689615,0.0116118174638356,0.00315922127406788
0.0204829163437851,0.0242045573804921,0.0108176116167372,0.00315929157471391
0.0186661295122735,0.0257718634075411,0.00976030614824738,0.00312403913690558
0.0201139454992742,0.0284248956378896,0.00872471804212075,0.0024304478203545
0.0201838015238092,0.0321161568594745,0.011590974667331,0.00249692144286851
0.0196649647006655,0.0253768845667362,0.0113830223973774,0.00330730572242758
0.0214426526487598,0.0332052021234073,0.0119581240903775,0.003168530877176
0.0184083496477695,0.0238558607852042,0.00948128401348281,0.00344278542979847
0.0155697200323804,0.0276360352135657,0.0100203282024569,0.0039143716282035
0.0184992369664594,0.0226471695069169,0.0100068873833998,0.00228799394454092
0.0188485851109338,0.0242410434356784,0.00992310729646877,0.00319503258218114
0.0170321391661882,0.0223157499815845,0.0103369441976769,0.00324944083907609
0.0131487470620822,0.0286473798306602,0.0119053987660542,0.00352886631884629
0.0178036035784701,0.0240756624059982,0.0116686093524042,0.00281761254780881
0.0131225118819295,0.0271686099000221,0.00876400866870952,0.00329382726059502
0.0173927905649985,0.0280724478231185,0.00909207251671477,0.0033476037157567
0.0186907461442813,0.0332532682601355,0.0111793685591139,0.00305422372732808
0.0233827725225636,0.0244938642253684,0.0106169110119581,0.00364025689707069
0.0163909956080438,0.0252772411011956,0.00897629938122635,0.00346800210379389
0.0201520846733081,0.031407619048006,0.0119051659401319,0.0040012984655111
0.0194476272737916,0.0271026139174652,0.00988667269372825,0.00353956994993407
0.0158513876861325,0.0322031850574219,0.01019401344378,0.00337271796780265
0.0217345518560781,0.0308798710592048,0.0125436720695335,0.00351896797156828
0.0219446983779433,0.0303212535374737,0.00923771793074674,0.00418217441978943
0.0215027299108213,0.0251709300812562,0.0083612480427629,0.00333121446304989
0.0189164293307926,0.0272716752594767,0.00780519911234722,0.00307353668346115
0.0243512606275438,0.0370981624175036,0.0095279123464855,0.00314713588924088
0.0251580534885109,0.0313096404363618,0.0142213971111819,0.00340277591272153
0.0227092980738119,0.0272966643447902,0.0124695288715627,0.00344564540822083
0.0184469104454435,0.0240287162845758,0.0101725206707024,0.00296879770122119
0.01697138826568,0.0292929409361699,0.0115185859912188,0.00339042766179232
0.0167920548854177,0.0205240309743896,0.0119218135227774,0.00288789164126262
0.0171272511999287,0.0227839163240378,0.00954751755712331,0.0019137085124749
0.0230736308787447,0.0306365177602308,0.0110719242385406,0.00334103705751543
0.0201317687216897,0.027650029697997,0.0104213999399431,0.00292269839223984
0.0218077629772405,0.0348224017572688,0.0105940355575331,0.0031594479793918
0.0162501162935063,0.0283478000583741,0.00936206627721031,0.0035139978790093
0.0200425842938653,0.0289434450113687,0.0138536527587979,0.00268138197826464
0.0279972787904117,0.0316044733011976,0.010880816951834,0.00254930106536991
0.0291998981743009,0.0315006738947843,0.00820437683822285,0.00240890924360454
0.0227057228514125,0.0284565050226372,0.0105624004354374,0.00344966270073047
0.0170041423537788,0.0298467971542131,0.0108996563335609,0.00133881535491187
0.0242134673213118,0.0297876431879574,0.00943155623406373,0.00179872304023307
0.0247639139273048,0.0229550066144455,0.00756232087291496,0.00176754421170892
0.0298169422732369,0.0290539919120971,0.012934089551806,0.000922743292476226
0.0286423733238759,0.0237941269632084,0.0133874683988855,0.00118109309392456
0.0252976318767699,0.0285964840955199,0.0105947344238127,0.0018375642896047
0.0220890245335686,0.0290209280415316,0.0109054767019751,0.00116411624154882
0.0140743913020948,0.0310196169506105,0.0110307489098683,0.00209007013379186
0.0169627150056622,0.0310830110502893,0.0108584916313927,0.00184547942798746
0.021607782748593,0.032436018972942,0.00990353781276074,0.00165222558004177
0.0205824796108954,0.030782817906679,0.0110229888576121,0.00156780945580774
0.0192436853976634,0.0269572300769489,0.012368959037767,0.001869574738291
0.0175981023197583,0.0218610368512828,0.0101345308370763,0.00135677785170151
0.0230790591078515,0.0336309145498968,0.0143884516744439,0.00196119837369171
0.0225082999829291,0.0306245537229849,0.010537960537145,0.00150371239407683
0.0209340096035081,0.0284876556534707,0.00976697311922558,0.00174808097063015
0.0258165083007143,0.050654042765906,0.00716947397186218,0.00292014060880813
0.0306750136750811,0.0577847021731857,0.0071740251121433,0.00220220042702742
0.026368108752517,0.0542635906695592,0.0115411794422515,0.00267550988357997
0.0376179966397198,0.056054716571138,0.0129590469921205,0.00309177249840238
0.0322679032459729,0.0488467945524458,0.00909134968552408,0.00299332172308024
0.0295468479326072,0.0336201386198409,0.00863717985647704,0.00234109802720052
0.0294524800985095,0.0463185202118296,0.00858260954001895,0.00282097382478897
0.0266137481199964,0.0519736276063401,0.00840238736431129,0.00230293823922131
0.0318834424571166,0.0425432208283439,0.00928842182663824,0.00275889680736604
0.0384722214076899,0.0455930719453123,0.00939959998303366,0.00240517850862994
0.0249241473074368,0.0454572201115513,0.00727837754728189,0.00277393527202183
0.0227852531395719,0.0471530599379962,0.00741008010489826,0.00195396366457046
0.0296194475070751,0.0467474226540036,0.0113182575154266,0.00229360905203771
0.0278998197989478,0.0498370745508696,0.00922547292262433,0.0027643554991004
0.0290530280931232,0.0458673512558289,0.0111194987978861,0.00290574802506606
0.0296191574667803,0.0544945471076198,0.00836864161028367,0.00226280971217375
0.0354186671899026,0.0417164255099788,0.00908523777240165,0.00199019580009597
0.0335994239635496,0.0499286288200141,0.0105234969417756,0.00167510171670528
0.0231416008026902,0.0515217283061251,0.00853714091420879,0.00231561565974296
0.0319244593356528,0.0415927484382271,0.00783028686100399,0.00268754686081886
0.0301277044157141,0.0579459915091263,0.0080776185766969,0.0023386022726979
0.0295742942721283,0.0435283409501721,0.0118534375022444,0.00222519209029428
0.0347628549898441,0.0435616454281505,0.00998903366023361,0.00195538788903899
0.0314244942341471,0.047598024217021,0.00928886784205008,0.0023101415957219
0.0314520574856088,0.0525078466025568,0.00812330976517135,0.00270880994210805
0.0261725594704064,0.0429236806547329,0.00836228101979903,0.00191382552052999
0.0325758142694997,0.0520533152775691,0.0095002973770367,0.00123905751920086
0.0264514054250046,0.0374565277078325,0.00932587901596842,0.00280924694648697
0.0360151685239532,0.0471613507803701,0.0096266255038951,0.00206382151066272
0.0284214544664654,0.0392334576247248,0.00866225475896614,0.00202113080997922
0.0339433999974814,0.052383563839112,0.00712348447873889,0.00198046639547159
0.0258941338526922,0.0562125536928243,0.00847644659585764,0.00144736734995789
0.0319593995844028,0.0513991973784747,0.00910416898082156,0.002157266644907
0.031494335088708,0.0548006210185263,0.00845859697070923,0.00192002768578569
0.0346405646721702,0.0396565373381909,0.00874765507716303,0.00208474975541949
0.0326998107195775,0.0404048013734727,0.00845516223123919,0.00197291614759665
0.02943611639654,0.0413317967178881,0.00628957034155318,0.00177017367139522
0.0345677439430966,0.0566402136926416,0.00877023823420343,0.00228117508005684
0.0233573848131955,0.0440197521019819,0.00785476110448933,0.00238787285194174
0.0340991557031101,0.0628077788832138,0.0082222140493188,0.00217859538716204
0.0423739409081368,0.0375370693523723,0.0124302164865676,0.00236912663274315
0.0325855488090686,0.0440297561009598,0.0151773005459066,0.00199986324003653
0.023840985678712,0.045424967131039,0.00869806962122964,0.00211968154682639
0.0313226975181867,0.0489619823148881,0.00987106379702862,0.00171444530496057
0.0262074450976802,0.0521083838413672,0.010563381370792,0.00175696367901423
0.0379018150200814,0.0461217363027859,0.0106487856884812,0.00229467025133985
0.0315526716449936,0.050592743268169,0.0123986387942964,0.00236145362686386
0.0321520503207937,0.0456019658602228,0.00891891820920759,0.00196717654335133
0.0341084418728206,0.0472086685486403,0.0120060873189812,0.0020608547666496
0.0311101095901054,0.0452615611373949,0.00709398529145066,0.00189292194436173
0.0304235603672039,0.0496450714894484,0.0101048866479779,0.00174681702504308
0.0326521603738873,0.0499021380597523,0.00787791772808654,0.00217948904674991
0.0327715417560825,0.0399121378427725,0.00799485789815576,0.0017355495105977
0.0357554540494949,0.0531618584171458,0.0103454515913252,0.00191719857306681
0.0355123836899435,0.0563787286431809,0.0108207421340206,0.00191819317162998
0.0362044729848351,0.0577031497419529,0.0155286491109267,0.00237702011601357
0.0325185049801984,0.0564474786921259,0.0125134835421409,0.00217282108316306
0.0358705324018707,0.0487210342812867,0.00967656040520084,0.00234610418073668
0.031231581057056,0.0471842722222742,0.00720076318988804,0.00205404157025148
0.0315058713346749,0.04009951537458,0.00797964484419925,0.00220259999785892
0.0263078441829553,0.091681257004815,0.017318797496113,0.011187389825934
0.0274166421618813,0.0643289395268516,0.0131006746799805,0.0103018033639263
0.0249525087438429,0.0651588980404637,0.0128393515738378,0.0128904928454331
0.0352985820705898,0.0584411348762143,0.0139144740419021,0.0109528446851158
0.0301371700412221,0.0832798452632375,0.016141647034182,0.0113110701594184
0.0374419407949841,0.0599898887798302,0.0166111433233937,0.0106947549005373
0.0257699055850165,0.0822569549033,0.0127891345309087,0.00714262544767938
0.0305823533234159,0.0584871184017308,0.0134228419099046,0.0104563049530572
0.0257093235725954,0.062089242340268,0.0161101047039462,0.0109014836226351
0.0290061852466969,0.073301014611461,0.0132909967333768,0.0122968444383036
0.0290017737898506,0.0693239887940639,0.0137821782627202,0.0122945540186271
0.023632852897624,0.0725116519242298,0.0178429046359081,0.0101885025831133
0.0250744636214573,0.0596140613336807,0.0131547272344866,0.00967348536494539
0.0348272674838721,0.0569682575329679,0.012392811348747,0.012502981444163
0.026303406813215,0.0722937159354294,0.0131132502935504,0.0131370792079674
0.0281483595683547,0.0717902760330189,0.0185110909094845,0.00957943522985286
0.0308677939130608,0.0579610780371272,0.028819774454424,0.0102805438911949
0.0366894561608045,0.0799869039310743,0.0137146966611961,0.0121755790604683
0.0237787443166997,0.0586723119142349,0.0150596444312549,0.00883326493526482
0.0258011342291285,0.0750102809724624,0.016670830473289,0.010988343563831
0.0264517657578498,0.0742303282308742,0.0117605608293694,0.00977137524847075
0.0304043285765948,0.052185256284642,0.0109958690816561,0.010859366581126
0.0356072332528868,0.0647298151182123,0.014696620554776,0.0114916086531451
0.0238049864683203,0.0729419046270143,0.0122907460710767,0.00900524041725515
0.021610296390093,0.0790540546140395,0.0165014440833424,0.00989254956304565
0.0287903059000458,0.0706589255204666,0.015650975694399,0.0110797388480958
0.0249721944198905,0.0573959741747701,0.0172096418777577,0.0107146138658387
0.0235831921757613,0.0745018525043356,0.0124478706122102,0.0112052644527694
0.027815370804391,0.059169639262073,0.014703313898147,0.0117562580647631
0.0267831701971101,0.0829992205310879,0.016134212027642,0.0125045880442378
0.032016021879924,0.0589808168290416,0.0131591531295826,0.0100320073519549
0.0376168602063769,0.0770235666266202,0.0163490525446036,0.0115116339065676
0.0312992045040107,0.0791471179719177,0.015292425170982,0.0106767742340803
0.028539966779591,0.0667028475299333,0.0148735304504403,0.0117064630581839
0.0310636176450794,0.0755857198367375,0.0158490483925515,0.0105005654110655
0.029653196227327,0.063291249529726,0.0155184579521645,0.0123288284129136
0.0225008113297379,0.0719953691733952,0.0121526447851037,0.0123638021923719
0.0332320676293414,0.0597621529644714,0.0136648279099456,0.00933348419844298
0.0333534146255223,0.0619602477912666,0.0160420297195498,0.00971594756010574
0.0250133165852256,0.0636164402137999,0.0122864329856538,0.00990812796157794
0.0266592102337393,0.067918245889076,0.0159385490101159,0.0108890723779283
0.0289949972138697,0.0627399191680769,0.011534771880316,0.00982299462781688
0.0315563773246616,0.0833553021068937,0.0189251941231376,0.0115484240294407
0.0312300487843526,0.0608893715399464,0.0145499412191441,0.0099024047871216
0.0274878331143146,0.0541547492073143,0.0150120112429126,0.00840195346678193
0.0343254483859877,0.0679592540477319,0.0137304550337853,0.01096684409656
0.0342948364436916,0.0686104330835449,0.011381932627247,0.0126095486615811
0.029769114099517,0.0633072680971385,0.0148709525849254,0.0103524894520879
0.0223775189980764,0.0562478442570957,0.0117480349150967,0.00988643951643886
0.0329180093643355,0.0606877551224193,0.0167637269775899,0.0104679700397317
0.0292870578614642,0.0565786661366103,0.0128782980125677,0.0101829138219316
0.0334178826111748,0.0645617206129536,0.0115667468827046,0.0115800448343004
0.0243031267752356,0.0641215005795947,0.0126366224278692,0.0112549391111385
0.0251034392671866,0.0602110990392943,0.0118876450736468,0.0100624095624875
0.033056216360814,0.0718900448682758,0.0168383861782991,0.013066525649269
0.0306553473704253,0.0650337721683079,0.0120874249656152,0.00948245346806894
0.0315036001060906,0.0730877492523137,0.0126552843485921,0.0116256078015931
0.0348029974561687,0.0740413153173735,0.0123561635142526,0.00876748664107324
0.0235591374537258,0.0594362459247933,0.0124668110550003,0.0127396648680898
0.0369137811556827,0.0630118272072148,0.0107370674359322,0.0110946905439033
0.0114917079411102,0.0310607309886025,0.00729968505286314,0.00126922439274169
0.016989464976681,0.0298839709271755,0.00793525629237514,0.00139156553641252
0.0165947745282593,0.0273029313629171,0.00837078315811446,0.00151693192190314
0.0146883606830129,0.0270583547227156,0.00734378658073293,0.00129189568932624
0.0113108653105642,0.0260069613586847,0.00840949036992337,0.0014387674700758
0.0150076200224324,0.0282042112777239,0.00687824512474184,0.00152940851869913
0.012569114823684,0.0251399628412773,0.00613723304533902,0.00133128838536155
0.0119304512145255,0.0268264921588428,0.00794209815062468,0.0013353940849594
0.0110848164066701,0.0291239640010486,0.00709651899505905,0.00131820548794039
0.0136572093145241,0.0254741035713436,0.00763320751346458,0.0013090070276729
0.0143750868548684,0.0283890881315906,0.00776402354208304,0.00143145292649601
0.0143067531572178,0.0283174272897751,0.00687805035210229,0.00130664693608791
0.0129929329083763,0.0304363718104243,0.00823328014000323,0.00123350949461023
0.0121352979552477,0.0252632503243308,0.00582092553619224,0.00116558109248492
0.0137104194449222,0.0317995019349063,0.00708602734223892,0.00105104195339753
0.0166499387080966,0.0304319513927334,0.00817636285900211,0.00140783572193808
0.0145414382234538,0.0311925724427873,0.00861083130086667,0.0170434305295799
0.0169121173155828,0.0290121124730271,0.00910238788917505,0.00212233024850599
0.0158722641254047,0.0277337477321998,0.00903417452292682,0.00791649009820955
0.0133286391536215,0.0317712815794711,0.00835541808096646,0.00170572184860807
0.0131478255331709,0.0294600156171664,0.00914801599956673,0.00137118281779294
0.0128051807395945,0.0338411786019797,0.00882993888515887,0.00126838780923223
0.0158507115710125,0.0307829605622302,0.00950153001229038,0.00129161221609719
0.0207246137964778,0.0281048591680649,0.00763098286164166,0.00121243886333412
0.0193292787028419,0.0376184061164056,0.00856728900634538,0.00176960729496186
0.0189603898224951,0.0343057254832536,0.00920036388906051,0.00137284478517261
0.013577330194626,0.0341583289139607,0.00956732321580126,0.00270381583259592
0.01605902879589,0.026125253124913,0.0093432360510315,0.0012937143182621
0.0172127747603903,0.0340859760968817,0.00737239809628001,0.00122592246411348
0.0149987396242609,0.0310114540975466,0.0100011781755819,0.00168120380714029
0.0228192845336209,0.0309563268432564,0.00973300332337361,0.00160586674516463
0.0177373861738782,0.0310703073025603,0.00901323039202886,0.00127940908591489
0.0111447732640783,0.0262752994055274,0.00814888440900256,0.00111348932440651
0.0170988490534714,0.0388550094877054,0.00814937612347508,0.00143029429433042
0.0193733477897248,0.0312663655176718,0.0130175777185465,0.00192724778304868
0.0160631814482538,0.0271924668748344,0.00926992904740793,0.00134020272889909
0.016994557760526,0.0356527027521567,0.0088693884265581,0.00140371369092477
0.0145458268021946,0.0290432128375335,0.00669624295481473,0.00120816406337943
0.017591120738629,0.0373782177041681,0.00865325443666874,0.00122668488260432
0.0125853714048986,0.0305762565078826,0.00783874020686873,0.00136499381091052
0.0183840796117503,0.0346374066939734,0.0101456150319896,0.00139331431239195
0.0141894055059805,0.0229802864631935,0.0130611945715065,0.00172757948574536
0.021102566288412,0.0328692116558828,0.0100994749678219,0.00141490570797194
0.0159818334641149,0.0312513213789079,0.00936425322971252,0.0015971036354782
0.014289947882325,0.0318109367937076,0.0107322502859194,0.00150900885655338
0.0179908037062492,0.0322153255141722,0.00805213677768118,0.00154575739749955
0.0176991615294955,0.0337515486322439,0.00790684367074364,0.00132444003676462
0.0131662402954252,0.0270317022660011,0.00724669720357165,0.00121950057740364
0.011497764208557,0.026388525756824,0.00617794592455204,0.00134896408317603
0.0136504829095959,0.0288287483171959,0.00940916026316567,0.00137889327739169
0.0161822443154487,0.0272969901640922,0.00792000807889513,0.00128836082933761
0.0163814845649448,0.0279856170587845,0.00832837247039608,0.00140218697197511
0.0163356072145352,0.0391011918839184,0.00902090909994478,0.00149613649236474
0.0166383841496798,0.032084976549618,0.00757180397066993,0.00158569747408507
0.0177233445545855,0.0329557136386824,0.0088516287766435,0.00121871585542691
0.0146375139679415,0.0283322468092645,0.00836329513862896,0.00128494001806941
0.0130298796662667,0.0291440822061343,0.00794837546829751,0.00135998555281712
0.0139469715275441,0.0283620275200394,0.0089752048619664,0.0012469168873562
0.0128459609269307,0.0283241984836185,0.00908599637430355,0.00110353629167119
0.0128938387972233,0.0280277132901156,0.00658126839359078,0.00116709376458058
0.0677553198181923,0.0360953018485357,0.0250361744803603,0.0143505018587207
0.0922939499521123,0.0413198016658119,0.0234251158400709,0.0201552806634929
0.0705231092856675,0.0396982077815687,0.0205254911800288,0.0155685065766307
0.104825639186019,0.036522433406248,0.0261387898766378,0.0248708230486475
0.0690879135332021,0.0334462167869904,0.0160579804773923,0.0134994284530801
0.0701867024735127,0.0464904468400357,0.0170271166654237,0.019569985439381
0.0676664792284451,0.0337887334599475,0.0225131832936951,0.0297817783267975
0.0599670456090674,0.035953483187867,0.0112517296780503,0.0209040791920664
0.0650839987727173,0.033281968521965,0.0179536072087034,0.0254301127832318
0.0832696344786428,0.0336145627554304,0.0127878281999836,0.015795257128564
0.0629851564005308,0.037414060051451,0.0114891893764382,0.0193618880952046
0.0746648094333313,0.0405128950545863,0.0166973106963968,0.0224015640619329
0.0608381221072698,0.0350196476620573,0.0177482835472238,0.0198914986164016
0.0612307178471513,0.031254520063679,0.0130205416617427,0.0281555667537347
0.0906148144711319,0.0377563866908876,0.0173922647833872,0.0410838982684022
0.0701325058643179,0.0425505814293503,0.0124801673852277,0.0254810723424614
0.0639989110042367,0.048354022533142,0.0138723922249049,0.0260359630987841
0.0598331042315329,0.0529041742638875,0.0168000987086346,0.0379117722146206
0.10140374783773,0.03913381976864,0.0157218631234329,0.0292924295104634
0.0866751088893957,0.0525984847915967,0.0154300076995113,0.0209930461913021
0.056264631060901,0.0374802611925741,0.0195430034330455,0.0294290831594318
0.0662634840019289,0.041051418932827,0.0140135034074585,0.0241982854305783
0.0833915829566084,0.0434471853612769,0.0195701730696995,0.0261731337189244
0.0720053703658019,0.0337927327319949,0.0146634956378119,0.0135962016379121
0.10820178546445,0.0618032251695301,0.0174024532926857,0.0148902741858026
0.105962849832621,0.043373416952661,0.0210493708099721,0.0390826371696388
0.0934217651613048,0.0487653874181981,0.0153546705553336,0.0270883685051935
0.0849296302220975,0.0662388198109446,0.0247761424284422,0.0225945085154046
0.0889399826268474,0.0347243992940473,0.0269631841319354,0.0408412107736181
0.0766464853838979,0.0368461074841523,0.0155584313186432,0.0374759507338279
0.0869391318411355,0.0323799102049879,0.018099609144306,0.0257537344154104
0.0994957456247022,0.049001509776748,0.0242556797582912,0.0190637430734142
0.0707800611247346,0.0357110225428176,0.0150008187475776,0.032088173407527
0.09560417744045,0.0531184590004308,0.0269412844821644,0.0418072325919747
0.071934459286375,0.0443701265409439,0.0259208546003196,0.0340944858653373
0.0933220801760088,0.0432920313612725,0.0166350077006528,0.0399040351524066
0.0766614512212727,0.051351366662589,0.0160027918468047,0.0269493069407866
0.0795598050297484,0.0439114193379082,0.0187672551491385,0.0409993529558848
0.0814331436932696,0.0566492599304594,0.0170245046284304,0.0298223589759239
0.0770809557561768,0.040633423810599,0.0181777294151956,0.0368414087990793
0.0888946862818326,0.0415948634250654,0.0178555992470443,0.0263577729213485
0.0682681219737319,0.035085407636809,0.0204879265635386,0.0232691071391896
0.0857240253857663,0.0425280603272092,0.0273247593376978,0.0289114824713453
0.0913376101788997,0.045402697953844,0.0248503553716166,0.024097901426948
0.0725104688037348,0.0499958453477319,0.0179026378390378,0.0235270655428728
0.0666728029279313,0.0422199491261001,0.0175071215938892,0.0203776427438335
0.0854567076666724,0.0519954913464989,0.0164079522859856,0.0335210523261038
0.0618022261341723,0.0319283601334782,0.013749533269566,0.0210246364795971
0.0606536226421156,0.0461117682075427,0.014545062175807,0.0297448599994031
0.0843563696568431,0.0395767057134738,0.022017642887724,0.030209239088105
0.0675675077114268,0.0426252725104444,0.0143093581133785,0.0238289018937951
0.0875874978468325,0.0459034008947992,0.0182576783457246,0.0240839409972697
0.0679218346749379,0.0405531699570848,0.0173867511943095,0.021772820205607
0.077559504743949,0.0339175916918283,0.0125960693043255,0.0248284077833738
0.0906356013794413,0.0405393155277449,0.0151025644032636,0.0318129851165774
0.0947383532625843,0.0519928126169555,0.0170602872756236,0.0207323243840894
0.0686912859640173,0.0451794092589971,0.0169750882178938,0.0286164615017277
0.0966012832659683,0.0325959298979044,0.013897671934659,0.0295472139718675
0.0959412444383957,0.0467041663917448,0.0250791160511178,0.0249574567979815
0.0887593808221917,0.038515717295972,0.0197131278426072,0.0259549570771333
0.0583656455891692,0.0302471957963355,0.0052767655329277,0.00415675956018303
0.0623364259081614,0.0342347898285027,0.00541998105321356,0.0043742468717169
0.0557599248155587,0.0333783691927729,0.00543319514726338,0.00368623643252803
0.0550377197273787,0.0290793371032641,0.00495974817760304,0.00444192963232687
0.058165158032709,0.0347721929478285,0.00731785679579073,0.0036035908865443
0.0473089991079349,0.0322913357103483,0.00585731094956296,0.00334043718047737
0.0580074098397474,0.029546100013195,0.00538352785776227,0.00390269907776774
0.0452757318172615,0.0272477176706277,0.00427231097380036,0.00512960674274193
0.0536066857420666,0.0291580192569745,0.00524478725558044,0.0041449718370209
0.05024650562093,0.0303160255013352,0.00459859203169211,0.00322346685390659
0.0655178600523446,0.0342958885966822,0.00428735312854683,0.00440001892814674
0.0416097778135565,0.0280878055576648,0.00506628914682078,0.00495446043351542
0.0623705022321625,0.0298607628919461,0.00500950556019527,0.00417274194393392
0.0377514659500742,0.0312879658593971,0.00550591634426214,0.00401528077326126
0.0727290940785309,0.0316512176831244,0.00578860522496893,0.00427515998543887
0.0462937491394403,0.0224761245365656,0.00534542950482294,0.00482037215806407
0.0517195030133691,0.0278251040626843,0.003949974690327,0.00375780431504506
0.0515670054272497,0.0332342541533993,0.00497621202387675,0.00359241988763688
0.0595294925479593,0.0302342883669147,0.00576448202630071,0.00426239262424531
0.0453837487139746,0.0287874510863578,0.0057029801391237,0.00405892514015923
0.0720304992680365,0.0296057986216983,0.00556723823667513,0.00397963500102304
0.0771674628033724,0.0448741884314611,0.00468323903328222,0.00321744477967156
0.0609783464868408,0.0356333408326532,0.00426141863111049,0.00407908329779991
0.0649037663893647,0.0355885465610779,0.00593673626059913,0.00324809075802064
0.0541624103059083,0.0320261213624256,0.00680800912269458,0.00387045191918644
0.0591655406980674,0.0324833285257119,0.00487088604272346,0.00340713076069947
0.064497871241613,0.0297267408976369,0.00542813807030469,0.00328040984568493
0.0375860156568955,0.0419817358611254,0.00620207090977896,0.00405477971694871
0.0977459937989595,0.12226005765003,0.0149757983709661,0.00342552734592018
0.0852034079327534,0.0349678018724172,0.00591334278483928,0.00347305485594474
0.066895130360885,0.0480421274488893,0.00586568218707324,0.00356555377423025
0.0683880668914175,0.0368276675411166,0.00560276972850691,0.00333610722456071
0.0591205183112091,0.0376170968594151,0.00606918495876019,0.00363886056322033
0.0438953424572639,0.029000772602421,0.00496792217404343,0.00255374640675995
0.0672346978613544,0.0373638828183255,0.00745405726242361,0.00384369045045107
0.0529577413605471,0.0365844019789828,0.00658472102602296,0.00292674773786479
0.0612644501509787,0.0370356970909941,0.00548233935340441,0.00311601378540312
0.0524760617812267,0.0242008083613665,0.00596663031829618,0.00327658558088574
0.0467816401895274,0.0311170370858146,0.00871746660583742,0.00375164131943047
0.0579471733189606,0.0312045165465935,0.005857503725665,0.00369354025831224
0.0370024238145853,0.0385309479930479,0.00777802330792824,0.00367532524064292
0.0497594731645218,0.0259120644558928,0.00603314024026178,0.00327964948701742
0.0430792196234621,0.0288007639071727,0.0101822793426688,0.00349127658501155
0.0394676872910517,0.0293229717004166,0.0065673693941549,0.00320856920101276
0.059924687867815,0.0369701889090174,0.00846328929359376,0.0029835766777711
0.0562366796424775,0.0273799041727244,0.00770051956945103,0.00343581378383754
0.0760667182246223,0.0354736131720677,0.00653285639854048,0.00329468837680977
0.0656407006591338,0.0290207265540512,0.00587668784393993,0.00310499936824571
0.0535682001443462,0.0275716245194084,0.00495330552586215,0.00364311744660785
0.0450042795859997,0.0334292775639023,0.00548581400000877,0.00382578847491671
0.0536034503268442,0.0367717487315047,0.00541964351129167,0.00257188707157062
0.047706124570347,0.0389462376904963,0.00517311668106749,0.00270983105023017
0.0443444754895702,0.0271945691431425,0.00541579969812699,0.00306133461284557
0.0481607927347794,0.0376291131784506,0.0054066314725602,0.00315791408726623
0.0391297742827198,0.023819172843514,0.00422216273930912,0.00278406654165102
0.0725165389550636,0.0341676033794599,0.00501570884100057,0.0023331755586879
0.0527760235251115,0.0374331029816422,0.0070034096789476,0.00328349817068426
0.0571092453333621,0.0402130028286696,0.00624085888671778,0.00349180848052415
0.0578358830773254,0.0271183706444723,0.00514214896200117,0.00356534189068466
0.0436860993107719,0.0251175362708988,0.00568034176425199,0.00347353529499391
0.0220094696106976,0.038607344269225,0.00638600226280751,0.00132120599882062
0.0336707646807258,0.0441547114371842,0.00807228626194894,0.00160856550066068
0.0223515422733915,0.0425593124368124,0.00896828311760225,0.00141586535772108
0.0273322007178318,0.0393775248792072,0.00871053950859715,0.00104217649767407
0.0245541499445285,0.0353171948066539,0.00914435231903308,0.00108012660061902
0.0226975590054605,0.0436113345759322,0.0082114624815119,0.00126110708928654
0.0192695515583058,0.0392048645782303,0.00837242057913705,0.00136120778032628
0.0224619381074978,0.0457147550447227,0.00774322828449715,0.00131560272159018
0.025435465343333,0.036266979177176,0.0084869345137424,0.00131034724160546
0.0298897215029968,0.0450262271144254,0.00755782553190153,0.00123272268410756
0.0293252439309928,0.042146370468392,0.00596520570040666,0.00105279600696612
0.0230429182576949,0.0322974658037002,0.00885271728617056,0.00127413305070505
0.0231768646484231,0.0357938279951669,0.00679056773794907,0.0012834298429832
0.0224364128829579,0.0365486267960944,0.00804794151079866,0.00128137159480826
0.0228001511701064,0.0399612449518472,0.00804350274831173,0.00123191165036216
0.019759462182207,0.038502322390958,0.00696765296720033,0.00116162958776467
0.01648366769035,0.0395792703991852,0.00753701665539652,0.000987601104237511
0.0193159736892238,0.0349964253858879,0.00865315258485665,0.00127841929974639
0.0162973367968976,0.033214691545593,0.00721388475453272,0.000948836186587868
0.0152765250652005,0.0392849765746658,0.0076376952293338,0.00115409274784085
0.0193607115568057,0.0344838348159684,0.00849459110538392,0.00144615112287736
0.0177194819112618,0.0354604668321113,0.00689740731743096,0.00118496276538941
0.0230695668241292,0.0397110727729661,0.00824816453476062,0.00114570895170375
0.0214528786388837,0.0414044238926724,0.00719285937495736,0.000987547426863874
0.0173279949124488,0.0338864861038806,0.0073541548097068,0.00121434651362064
0.0229884897781351,0.0407388125074146,0.00905525976767194,0.0011317539696537
0.0244530776680293,0.044652169785794,0.00994196489876175,0.000944030247724378
0.0236547341675246,0.0499298274542804,0.0105040905756735,0.0011006931396007
0.0305848764019782,0.0338266060968612,0.00787274004330427,0.00114098362690008
0.0220423007605646,0.0431277189368821,0.0120606755042646,0.00107049858245854
0.0136909899708715,0.0411538432718931,0.0104914524083831,0.00114649442565201
0.0238987976174239,0.0358291050742916,0.0064854084209555,0.00106596136234059
0.0233706907087597,0.0336803706519865,0.00835698983394129,0.000864656702793692
0.0209907436327061,0.0384742190915228,0.00880339772536969,0.00123168355278922
0.0208075975125933,0.0382341705426122,0.00889905011516312,0.000842875831144714
0.0300302754849336,0.0367295111625627,0.00850176501762249,0.00111679396549972
0.0212708477802893,0.0358162381290211,0.00651455662367414,0.00103953773481275
0.0185727832764504,0.0350726412197225,0.00784402527164211,0.00103558017813461
0.0187499395123693,0.0275541133396378,0.0104665312299255,0.00100498569575624
0.0222154147832717,0.033607345505136,0.00832036727823651,0.00123119255027283
0.0283810337469596,0.037004719938067,0.0111217117480446,0.00125741663669467
0.0192202840503364,0.03881579464386,0.00970842019233048,0.00126174977018764
0.0260652448702431,0.0388212313832168,0.00926880815743407,0.00139407791684336
0.0299344862461942,0.0470022607179791,0.00677024368745499,0.00128714028622803
0.0298876144265023,0.0406454022039729,0.00996039653482434,0.00133345032501397
0.0221907131414943,0.0399916766107882,0.00952635843566741,0.00141559456953711
0.0228134828560805,0.0401056487425884,0.00736936924450032,0.00113609812612939
0.0263065864195423,0.0428411531120744,0.0111306078795043,0.00133737123092804
0.0147933890986677,0.0267636408367981,0.0063066782394762,0.000952187453153209
0.0156756510594256,0.0346097258658708,0.0102732846298707,0.000926713308313544
0.0206717184824734,0.0356190538984271,0.00678689178560081,0.00116265913867897
0.0272389264094154,0.0387188035256832,0.00765972192601337,0.00119208904438764
0.0259570299642161,0.0277570021010326,0.00642164880481634,0.00127651153192637
0.0189266336951987,0.034470337560575,0.00808792857135445,0.00131287614441404
0.01774703052017,0.0350129528651741,0.00901772932915498,0.00108557001019136
0.0164672722423634,0.0341730249472013,0.00603019249504906,0.00104329095499196
0.0167800181556858,0.0340966334954488,0.0066037296216573,0.00110983895512215
0.0189145691987408,0.0306506289338185,0.00736696200643461,0.00105752693391144
0.0183473725013995,0.033150197839101,0.00537509988171395,0.00136019700054262
0.0173954261347877,0.0335812936208614,0.0060209078928913,0.00117150810328907
0.0293481435493347,0.0500889985796422,0.00494114094806139,0.00560493618771311
0.0277113245845371,0.048925425210613,0.00440534806336751,0.0106049071537323
0.0252727728912759,0.0446372175164773,0.00380810534273963,0.00469476082879133
0.0264952129343275,0.0453042464475185,0.00419063578815758,0.00532443287503004
0.0236278246377592,0.0481190387418041,0.00426520212464413,0.0044068310958746
0.0260880933491805,0.0454232146610973,0.00385291523844502,0.0120454381323649
0.0275247687282114,0.0426999552266474,0.004118327602167,0.00126428686811413
0.0269770065230892,0.037770411652878,0.00417305609128666,0.00171633565689174
0.0285268196694608,0.0426493098845449,0.00495206863089438,0.00568648568593187
0.031367641480432,0.0561039191530278,0.00549110461641417,0.00188173669839562
0.0307424242370114,0.0460968263554281,0.00470626166852155,0.00584303069099919
0.0271578257125431,0.0489198515323131,0.00474313291613361,0.00233894209217792
0.0306379674036162,0.0405906122108083,0.00381104937154433,0.0050310758380032
0.0234634120412385,0.0338974809246857,0.00411186255109355,0.00789919328702317
0.0273765207435956,0.0423925725981274,0.00431217447072105,0.00577290469690596
0.0276201939287966,0.0460787134019537,0.00441929629676243,0.00601076559191818
0.0298894617158345,0.0448913874731019,0.00366355742149999,0.004340071890541
0.0290638723834046,0.0500882380365153,0.00505818190083926,0.00698500212235233
0.0318274488457528,0.0469720672283765,0.00491657081461861,0.00621371310728446
0.0310969877547034,0.0516326614280294,0.004773210209554,0.00654217911957748
0.0298284442865547,0.0392726780647514,0.00436372270900149,0.0013201793203129
0.0287699432199983,0.0424120800241526,0.00355982005425957,0.00650805902226292
0.0341467518114457,0.0354625646719212,0.00371518221490836,0.00402787496746294
0.0299395841911038,0.0377824195727058,0.0035265830928264,0.00636627179418879
0.02211675018869,0.048065609325383,0.00409387125095345,0.00195688294738986
0.0282484531029154,0.0387915417478041,0.00495008179131726,0.00461279417820273
0.0295077775975572,0.0459420784520386,0.0039831458573748,0.00398929357085489
0.0308322041034833,0.0414526594627403,0.00486587398655514,0.00590253591191219
0.0225135816083671,0.0413440350829211,0.00432952183865672,0.00671249694822112
0.0341995116239008,0.045313028683744,0.00388170159433075,0.00743934723033147
0.0250156585741306,0.0442268086416924,0.00392373711928302,0.00698549428658935
0.0366014824917463,0.0493417785126214,0.00490388130032008,0.0108255857726747
0.0287214984939803,0.0433871886823837,0.00447925598299721,0.0206980983936414
0.0281052637414119,0.0578598391831833,0.00447786962478224,0.0159659468654209
0.0332937931156965,0.0509343513082588,0.00446760936845768,0.0179148464969053
0.0233320065509112,0.0439958678361127,0.00437335807023311,0.011848878739314
0.03332796975957,0.0398573259648916,0.00372231767318141,0.015264549084034
0.028280130513894,0.0493425396036993,0.00479237167799847,0.0257785353342737
0.0260746319007437,0.0472696427600796,0.00492128673929522,0.017891267901025
0.025658862498025,0.0429362559260879,0.00508930764744548,0.0311005168297646
0.0292094391223257,0.0464660368772864,0.00504381597213845,0.0126504604053548
0.028310173697097,0.0451479330349952,0.00406383727510774,0.0196759415667516
0.0235663072205051,0.0460396847570931,0.0043965502693526,0.0133413057242072
0.0296799630748207,0.0524346360719365,0.00608761859029428,0.0136141092978644
0.0295681755369173,0.044728354062439,0.0042164783780601,0.0159948114180026
0.0277211194255705,0.0381379053718487,0.00420178731932315,0.0144848913419149
0.0296605510330534,0.0432219017412195,0.00451082257688538,0.0175625209210061
0.032391418877371,0.0546919013176278,0.00542662785176813,0.0158496644196542
0.0277234246871872,0.0435189530209503,0.00511972028565666,0.0179406890472017
0.03242017020242,0.0444855887384913,0.00468017440579907,0.018498836018124
0.0317900240402281,0.0550629881845102,0.007307284048571,0.0216749805733956
0.0366996981243663,0.0961560334218849,0.00837827110461599,0.024026061228975
0.0249281849637875,0.0758645791621319,0.00555372773826944,0.017741399512211
0.0308277088074011,0.0656951286616149,0.00553191377824231,0.015645181658447
0.0249196092482166,0.0671058661505522,0.00573855308585917,0.0223095454321632
0.034133145420802,0.0641768825148154,0.00542712914569363,0.0196872842166445
0.0362809019945217,0.0741271569566472,0.0054178621952419,0.0250315610657164
0.0274695225943873,0.0589340851616249,0.00504406130780846,0.0177298662327943
0.0297983329115053,0.0616375680364421,0.00497260552124666,0.0160921750867358
0.029958425074986,0.0501151370090709,0.00418794137764889,0.0212540965610481
0.0381593138956461,0.0763995824429932,0.0105538011430852,0.00155620997303982
0.0259646058809723,0.078971981885285,0.0107416240766291,0.00156565253095961
0.0299171397534348,0.0723613818397362,0.00959561554018752,0.00190726192232531
0.033067917811216,0.0852717743994821,0.0113405010653817,0.00161795875305174
0.0304426124729337,0.0923064771433768,0.0118953292670767,0.00170932165912588
0.0324546552929462,0.0839234528240752,0.00987155425058637,0.00146870465600514
0.0469358701208561,0.109363673417006,0.014938517564701,0.00169917708688549
0.0411953934184218,0.10604505968104,0.0161974240750983,0.00183904509924664
0.0351432097431456,0.0666675679976933,0.0119531831547148,0.0017510402472753
0.0344184983322044,0.127696681500996,0.0169922953571057,0.00159314023156911
0.030449574895446,0.0781539243663325,0.0103260889033898,0.00131798986231922
0.0380719195131403,0.062151531377838,0.00879239423844117,0.00176091271291718
0.0341672716299411,0.0874444582484147,0.0140929552601783,0.00172598994512489
0.0448104074268489,0.0841450601544185,0.0132485461809985,0.00197538434977443
0.0323589507659964,0.0844795714485216,0.0143893703344775,0.00195582206228781
0.040096301338523,0.0852517477324615,0.00985328449614424,0.00169164375315722
0.0396610233667849,0.0847906761770699,0.011405205134171,0.00129442366206059
0.0422134147626459,0.0795899288610687,0.0109672217085277,0.0016566532227706
0.0333824212063515,0.0813426476001496,0.0118840017846135,0.00141777340251214
0.0410832503839648,0.066797008753079,0.0104749153620127,0.00149041148477216
0.0297021792606523,0.0809908058811888,0.0111121076270886,0.00170407298399454
0.0465656379903848,0.062061994805751,0.0101607625774395,0.00145980038463368
0.0412591275226736,0.0653800044282901,0.0117982403467764,0.00125909327893354
0.0337002259258223,0.0645089448078925,0.0107660357336946,0.00159260762764385
0.0400825720596041,0.0872185294450506,0.0100424060424389,0.00126319562467019
0.0371886810897189,0.0910942158361771,0.0101994945277261,0.00200166729894908
0.0384278125900284,0.0751863918008677,0.010753978086639,0.00133778317317039
0.0358778623440982,0.0871050321934247,0.0087825312899855,0.00164841497483345
0.0399195973589046,0.0831250165179742,0.0104678497926896,0.00141556556994403
0.0317781712608633,0.0748404073994025,0.00797682536015615,0.00113315315513546
0.0364937769535038,0.0875989394733895,0.0094389558156481,0.00143011097475708
0.0336172802620131,0.0892836871827332,0.0121576384850554,0.00169806061849592
0.0407489556881404,0.0688490842080565,0.0119829239752586,0.00163717003088668
0.0364113128577586,0.076566284981812,0.00832839821216921,0.00173318267685077
0.0361046314280813,0.0824720422208209,0.00946858273044815,0.00129481254096492
0.0379935293253945,0.0941925211658102,0.0148952256199574,0.00120965870225268
0.037256073341644,0.0739479067702331,0.0105087447138304,0.0014491991198284
0.0418073112057584,0.0810063787045399,0.0116307250418836,0.00158778857548939
0.0419844216176511,0.0824883225395459,0.0143108964558423,0.00157174529967596
0.0380069166378133,0.0622712724409357,0.010751996495288,0.00125217653469788
0.0340704796792429,0.0811154834060084,0.0098372069280672,0.00174520408831483
0.0402289219540217,0.0729342393881171,0.0105744030274082,0.00132179350058046
0.0414535379039103,0.093750863933407,0.0122507456645843,0.00163766728973903
0.0431624680889707,0.0751472266896875,0.0122059307191088,0.00142803985388165
0.0338127071258133,0.0731728942440225,0.00915213604122306,0.00157095519563796
0.0324546699706674,0.0656950596531267,0.0129278843683877,0.00148832691226096
0.0396489855482744,0.0860343678704411,0.0133377848539145,0.00152477692095918
0.0355941340535818,0.0787120664300994,0.0107014991311653,0.00178141776189414
0.0278412433390109,0.0734754404176045,0.0134119086301337,0.00134003965849083
0.0361186491966567,0.0886647572107987,0.00978599678547315,0.0012977089175317
0.0259683514655914,0.0765949126616032,0.010611105129236,0.001466715992099
0.0278520408997797,0.0681225449568188,0.0101491131521823,0.00114438328925502
0.0376068407387457,0.0698765368553294,0.00973468856192766,0.00134704108523829
0.044001382324869,0.0810721553074944,0.0107575724199516,0.00174039114056852
0.0271358120634918,0.067531308278258,0.0106019069017903,0.00160308926407643
0.0313282666965888,0.0624902081605766,0.012363481465595,0.001608641308617
0.030395514525147,0.0644509005151899,0.0103949320089757,0.00147465089976675
0.0322568941389718,0.105195806569945,0.0141889025689683,0.00156099083557194
0.0324353110153132,0.0649178025668884,0.0103179389930605,0.0013792271340619
0.0345078175249444,0.0611465222352913,0.0136555082610066,0.00191035894184993
0.04457752290971,0.0375047530419336,0.0126122344522694,0.00179235368731533
0.0281493937545546,0.0317622049881929,0.0113394039710519,0.0021170584050733
0.0368655265553961,0.0421924560371673,0.0132996090506629,0.00211157364491586
0.0395875010189475,0.0399354039177186,0.0131579357108574,0.00195561825719027
0.0351600077128543,0.0373957139603772,0.0128129692637676,0.00197428983798209
0.031520094109241,0.0402425377370258,0.0120664129139187,0.00200196015843619
0.0341429945848676,0.0395595064993074,0.0150452893552368,0.00219123034155555
0.0305486701480528,0.035419790433115,0.01130121037578,0.00191560055108798
0.0313464994326999,0.0337096621257554,0.0132721156073969,0.00222373501176503
0.041090967337176,0.0307903292092876,0.0171897264104308,0.00215084482071326
0.0369873487481797,0.0390489358298479,0.0155020683736135,0.00222105010453855
0.0305756853613981,0.0392461572979468,0.0140345659888233,0.00311133477116363
0.0464789227675905,0.0382672548081979,0.0173002183531692,0.0031433649242701
0.0374475048191757,0.0363966180102581,0.0159628157921372,0.00222644770081285
0.0427863620747309,0.0376836112476402,0.0100085273953356,0.002872827090846
0.0373702720757638,0.0374229294023736,0.0135268685595352,0.00280733915698567
0.0338503213383353,0.0344806660476624,0.0121701435143192,0.00235783541176383
0.0453157997630177,0.0343634316510342,0.0157541871373375,0.00280988916340638
0.041761072791635,0.0352065407225906,0.0150412470491464,0.00215989046164146
0.0378461579974806,0.0376289387540077,0.0157450542244612,0.00218258739773606
0.0360781402228138,0.0415622081639718,0.0151899098100813,0.00203026041980029
0.0502095589913604,0.0261350776489693,0.0106769437294606,0.00204953304360614
0.0325099072718747,0.0360702488519667,0.0145699762777082,0.00277314220332396
0.0357379006305324,0.0377582636623341,0.0163794636691791,0.00223366139445647
0.0351306707263152,0.0324218846200361,0.0143425427930514,0.00258434196591163
0.0332118296092583,0.0338044162536885,0.0116275043538433,0.0020354255251223
0.0303517797582454,0.032450316050127,0.0199560877707428,0.00222730984334179
0.0390350804943765,0.0363867996490861,0.0141252553788688,0.00216543886439136
0.0414913995491685,0.0369184305052193,0.0162059622802137,0.0023339669337682
0.0552964802502477,0.0330059543173295,0.0177074412458989,0.00204033793111729
0.0312215308373162,0.0285525323424383,0.0137425346717182,0.00175726836865167
0.0462755990430886,0.0315680483123033,0.0139891987595014,0.00218107571432861
0.042373766741009,0.0322167294099759,0.0110298158175483,0.00179565030121843
0.0382483499742944,0.035872817917849,0.0168926507893054,0.00199830829602371
0.0264528162857304,0.029037453325704,0.0163187146526965,0.00199697115503532
0.0425941301969423,0.029478997488468,0.0142705550035096,0.0023013566699054
0.0327727806491065,0.0328341725087012,0.0146362234799446,0.00247635528334046
0.038479898525789,0.039052163662613,0.0138159747000774,0.00221888251459772
0.026624554344605,0.0366867788324979,0.0166572463205959,0.00183023639298408
0.0348246990659668,0.034009893089884,0.0152915449328796,0.00213581408416641
0.0271094838993444,0.0309423169234039,0.0121200168548633,0.00160473927858161
0.0280446829112859,0.0377848933046673,0.0127837666297623,0.00217152070524775
0.0385115563601029,0.0347578610045185,0.0192576284078201,0.0017509196910094
0.0338132647070433,0.0352838836234857,0.0167069044877235,0.0024045449307537
0.0228666121715485,0.0388608254120599,0.0207875215918383,0.00185567407758399
0.0277622168686305,0.041181322683978,0.0119540904182514,0.00148984111409131
0.0300729397930784,0.03654160087141,0.0185542443649893,0.0019418263038196
0.0263679120787185,0.0343201154252846,0.0140841814291348,0.00218498887978283
0.0278214120526329,0.0342683290665524,0.0139441869338157,0.00170078594551939
0.0304822357971407,0.038176253302518,0.0112790135287361,0.00220209218222742
0.0287985002932371,0.034359672672149,0.0155122806454703,0.00198031904215283
0.0293825477841303,0.034983563477808,0.0191027104651516,0.00241845025138062
0.0374254172334502,0.0333333298074944,0.0126059076419032,0.00212688730433246
0.0381744036911813,0.031902496521652,0.0165722033679386,0.00195638930862997
0.0355202032914097,0.0344849687394633,0.0126154913953142,0.0022452857128814
0.0293070554094151,0.0296347295673899,0.0127091235713367,0.00195716569193089
0.0265683730923954,0.0309698496418941,0.0198177993976951,0.00197268707919683
0.0242375730659445,0.033496034211228,0.0157026180396175,0.00186263244230755
0.039301810549938,0.0394746288350037,0.0149435998652224,0.00160220820484038
0.0354048835009052,0.0375238023901981,0.0136198199494053,0.00212766274644207
0.00995009162297868,0.0307036944476528,0.00653443720265392,0.00136623507140639
0.0112127791325009,0.023213109614417,0.0066691514454617,0.00102787017961359
0.00880547889517624,0.0221708509136476,0.008027482729437,0.00173579734248697
0.0122651471959761,0.0263929828167642,0.00670337632206323,0.00161188794084469
0.0105811912571813,0.0232142642626256,0.00546863455640173,0.00124785664674617
0.0123489827203322,0.0288673017512912,0.00598116968272661,0.00158285488422326
0.00902721123498279,0.0300194674733081,0.00671926873885195,0.00141011059438234
0.0100535801114999,0.0238010448651598,0.00703812077843606,0.00144521595693209
0.0119110464027446,0.021650396567937,0.00578299803084185,0.00146228445985249
0.0135715316092441,0.0336898805888935,0.00595322329991514,0.00132030195674879
0.010160893052482,0.025811396419764,0.00765967242625011,0.00172285137484897
0.0107147757337653,0.0192398175732276,0.00550064653861035,0.000986404666793418
0.00948456990876795,0.0180078975070449,0.00705611343779578,0.00129211694707097
0.0128334711489805,0.0262358629577205,0.00623954619281113,0.0015361927216702
0.00924434459495086,0.0228913933220576,0.00680183416308885,0.00166257262153046
0.00998509921642257,0.0280807913394269,0.00606371741463477,0.0013078784506972
0.010928546926359,0.0214826539562228,0.00636635121600924,0.00129086117662277
0.0126251048187916,0.0255488730732121,0.00760997949277504,0.00152404016663384
0.00787020897979233,0.0196158132672849,0.00632994366942512,0.00129708772532891
0.0106347536504416,0.025783501161275,0.00579993968772587,0.00134912153385609
0.00900828039768871,0.0251942388640668,0.00717085059990699,0.00127766272947484
0.00907790459897079,0.0233152151551275,0.00540372225588623,0.00103125793971283
0.0101997335303902,0.0298348027554827,0.00711818402930693,0.0010853752629557
0.00832864546834318,0.0246353063472614,0.00656596621421591,0.00124671584723938
0.0101893474471593,0.0306773039135522,0.00643789691250763,0.00153661655693711
0.0101304215005941,0.0247968070174658,0.00663900576970372,0.00131312622840363
0.00889353713051831,0.0281733844196091,0.00542931156985752,0.00145669232804061
0.0108985350978907,0.0268021388633564,0.00505788725098066,0.00155449085763246
0.0101566656690439,0.0284369541273557,0.00551296099775471,0.0014401565778392
0.00880384275617856,0.0254367690960762,0.00622153327582576,0.00141533206383362
0.00913467650811023,0.0259202378952798,0.00582308643071975,0.00139684465104309
0.00930833795532597,0.025413907487476,0.00567301547407063,0.00148010132628507
0.00988647510921486,0.0272788355662997,0.00555786763727361,0.00135985922760638
0.0085161167617504,0.0264312221724091,0.00611155797406604,0.00120591061517535
0.00821858062835125,0.0244283774871021,0.00626929728627486,0.00115339656739887
0.010152110103043,0.0309065186105477,0.00641219354033213,0.00123662946965828
0.0105910772679849,0.0286732503047608,0.00833688445334001,0.00162451327330037
0.00765628301201776,0.0245317423798955,0.00567823360354244,0.001260755937665
0.0109227946198544,0.0264212544202084,0.00670852118076668,0.0012217527847438
0.0116556029354349,0.0252670890070844,0.00634522346034005,0.00157144397413624
0.0108351174207919,0.0269287278298194,0.00640979510412265,0.0011876086219513
0.0102282489400792,0.0293697739527372,0.0058061720002157,0.00126547329052796
0.00926570634529852,0.0247248098061057,0.00617049514066578,0.00162256062844271
0.0085256460304091,0.0227587888280375,0.00719288833399061,0.00137330967346609
0.0121622963171763,0.0317997494566211,0.00841206660447949,0.00181008893999138
0.0119762319830902,0.0256335054394364,0.00653042020768506,0.00136234700186068
0.0107428618638758,0.0282518938247815,0.00551059649680238,0.00129975666108008
0.012338951926767,0.0258451933759259,0.0062357060335639,0.00139055974929397
0.00957813533224414,0.0252516183838628,0.00640133578144315,0.00102566477343402
0.00990157089428963,0.0301923333355568,0.00663543456740475,0.00151607889384349
0.0105754920256413,0.0328489660107733,0.00520193115992726,0.00141724165087958
0.0110303717665756,0.0292576335164836,0.00807264378169283,0.00137632810496526
0.0135679936258989,0.0242063702226559,0.00689912560983505,0.00136644190797077
0.00913063539606033,0.0256544977596048,0.00580912889775173,0.00123560373712056
0.00935174115923065,0.023497232378705,0.00619711386146164,0.00141960365477381
0.0107929963318635,0.0230498179937903,0.00539927961315352,0.00153980744641159
0.0122384373927554,0.0279161493305705,0.00677631652203998,0.00158470629853309
0.0130616389095954,0.0326460414975175,0.0046175122618385,0.00117889087659495
0.0113122732604099,0.0272182811214088,0.0070115913875895,0.00142568933482569
0.0122488573535745,0.0214983947898715,0.00555772860631616,0.00126043124844322
0.0244176263945724,0.0237313415882559,0.00733926970904358,0.00464407818409157
0.0228275264110669,0.0286123812759641,0.00883462134089604,0.00432542617843454
0.0263791008331741,0.0234998257505849,0.00913470230863012,0.00486568885240943
0.027875759478851,0.0252857660494219,0.00860754529752617,0.00499443351526547
0.0301011090021308,0.0216539444234064,0.00845067266570832,0.00357617214507801
0.0377853716129752,0.0247513580371213,0.00858124940754613,0.00569021429734549
0.028092009298568,0.02448749378451,0.00660102453223386,0.00481075888005243
0.0234904142927136,0.0264128601924599,0.00755183256608588,0.00437013630128395
0.0274622391507388,0.0273716678187408,0.00784496483848309,0.00488175362347584
0.0295012466511794,0.0269747306807109,0.00701368250590903,0.00468338420334137
0.0265526963709794,0.0245317953480161,0.00751597225889506,0.00426044266596998
0.0306908642064897,0.0215277816096364,0.00707492200843317,0.00482345843461332
0.0350285767753124,0.0263926035248525,0.00754124938638,0.00513986766943354
0.0359652784784941,0.0257750413251601,0.00806499185010745,0.00470362933311616
0.0262091803299889,0.0282806780043633,0.0060230373041212,0.00565019820324868
0.0340316075061169,0.0218581906928283,0.00414257746630823,0.00472346096868022
0.0336702234235632,0.0260049606220156,0.00482110240034956,0.00410844525292263
0.0311113492949116,0.0258915634072616,0.00517449416850363,0.00357014111536686
0.023841167636683,0.028815464732786,0.00470387180681001,0.00471079938880923
0.0290171474587434,0.0255727743220226,0.00555969628695136,0.00489476567147826
0.0323463537651689,0.0233171156471787,0.00545433904976728,0.00403179286867556
0.0419166128277762,0.0288466434476542,0.00442434106727425,0.0041429875980592
0.0309987241732627,0.0222699876078733,0.00482131940636325,0.00530013936432255
0.0309802499070416,0.023942075820318,0.00451023434079045,0.00468518838465802
0.0330324391645352,0.0290132275443159,0.00552093171430302,0.00411553227587524
0.0282776918447688,0.0273627145938985,0.0042845707991123,0.00435618923312566
0.0356004078275937,0.0221257409982706,0.00475204497278743,0.00368679674311618
0.0398241606641898,0.0258766126595336,0.00492269528907431,0.00426179533002857
0.0307064564918057,0.0238306634842806,0.00457670291109232,0.00459249063994319
0.0322456416742441,0.0232717365648504,0.00505794838743934,0.00501449314474478
0.0350842808964899,0.0321442118594263,0.00482908981952015,0.00487928171269983
0.0290900796993181,0.023353584710557,0.00373940602275375,0.00581580676013146
0.0305823302860971,0.0256338243830907,0.00454692293855528,0.00468718719931527
0.0311036056016595,0.023057164598558,0.00409314828973088,0.00373758396401966
0.0364674983089092,0.029045826457056,0.00366353154362683,0.00472308690903235
0.0298318469947998,0.023234445347641,0.00468861492724049,0.00453734238984777
0.034231337106657,0.0242698615147758,0.00565007594368131,0.00539730577227244
0.0298758321849133,0.0277551852726651,0.00555698069838706,0.00421064643613567
0.0414600410156385,0.0246957059891515,0.00453673360150423,0.00494233190150327
0.0261763114114327,0.0198892437162593,0.00375200385365287,0.00492030435067606
0.0305628337259316,0.0313508553706046,0.00449219381244333,0.00461515996155255
0.0278290123582552,0.0224356169278079,0.00423625728348906,0.00415455303957195
0.0302310848978964,0.0259779483014656,0.00420635324363075,0.00434936980998249
0.0297139259093335,0.022607855121498,0.00570010200818776,0.00466132804667611
0.0289782901920373,0.0231553387078789,0.00401469108982155,0.00499523662276866
0.0299362472443339,0.0218589461345861,0.00436567067617189,0.00406796296055345
0.0339858597384513,0.0215309464899088,0.00557265130969256,0.00514062730932701
0.0287150162877725,0.0299136540022295,0.00504771884227309,0.00448739997435776
0.0357687709203616,0.023767612321949,0.00419504362800217,0.00555839136077732
0.0427405870246717,0.0229030768429614,0.00385829373907437,0.00486967222983616
0.0341293241525412,0.0194965417990661,0.00412262574410361,0.00456734374529433
0.0392220236782963,0.0233139161856291,0.00419193824198916,0.00257965303377131
0.0327960434672863,0.0238759821785571,0.00448392009400398,0.00393344962170726
0.0254588218329508,0.0249704867883066,0.00612405940546449,0.00356410807378936
0.0303760928577356,0.0201346432462769,0.00522693343538807,0.00395525753474617
0.0336750416445714,0.0242445684301349,0.00401960195349899,0.00511765046540309
0.0269326021388382,0.0229276948113867,0.00356171398433703,0.00448276711605863
0.0300559560699639,0.0277140770855123,0.00300939410044025,0.00391497887847196
0.030015936658051,0.0231542314759201,0.00471635106402052,0.00480682504482087
0.0258190614432944,0.0249534038356054,0.00371237083014061,0.00361346636153348
0.043414963823671,0.0497839065090414,0.00795187794507542,0.00684934830618243
0.0379943724040266,0.0547238842730979,0.00811493702620705,0.0124369945819265
0.0490145851692499,0.043673739165367,0.00916943510913297,0.0305627475194032
0.0504387592387512,0.052053583366945,0.00658523160646446,0.0322533892917776
0.052337783443774,0.0596599199316327,0.00631881709279684,0.0118034406974698
0.0428894043175924,0.0561982831594502,0.00779233692841807,0.00601607282507081
0.0472447485077887,0.0463709487541882,0.00627998737619494,0.0120082940800217
0.037888389391458,0.0452684590644104,0.00681464152273302,0.00883036182963032
0.0498412557930132,0.0453358520225616,0.00790799098037601,0.0114800784997528
0.0637226075115564,0.0546787247944457,0.00842974977338358,0.0131227539714297
0.0448514992331409,0.05112237304214,0.00752029601591861,0.00768012205764811
0.0369108966768046,0.0469900039934728,0.00723961977030718,0.0112196447543125
0.0588950677147247,0.0568876340726061,0.00651184544422845,0.0127071899548492
0.048462918773586,0.0450245635891673,0.00778540805544561,0.00540257052590655
0.0423979348723456,0.0537139413905939,0.00655222896589966,0.0134369980236344
0.0369335238209829,0.0523016586759323,0.0069774812586495,0.0151916094231719
0.0411934489975672,0.0557392025670667,0.0084551331794373,0.00832301511640659
0.0356244950199573,0.0525330541424143,0.00851493777446636,0.00944447234415706
0.0416045262557271,0.0460711638534144,0.00737414849397498,0.01119566359261
0.0509835998613274,0.0506960022268956,0.00694847256834851,0.0169080326352544
0.0368986449327779,0.0507295814798987,0.00543746017374056,0.0143815543129407
0.050334656896696,0.0556002781753411,0.00823916313579961,0.00504162622231186
0.043698775284533,0.0521448300441566,0.00807589803266924,0.013496505858364
0.0399673456818301,0.0625332664462534,0.00639952185510926,0.00869885968331669
0.050501280733785,0.0486867716512806,0.0082999439442851,0.0121912308934849
0.0404213253476882,0.0570051257207021,0.00723426381567393,0.01041447536053
0.0420551844340128,0.0692637944854981,0.0072476107451808,0.00547215757303768
0.0376636245304941,0.0374938130177866,0.00726713674829693,0.00153875634769442
0.0398146567090179,0.0410807573575604,0.00645450969199964,0.0131541011168146
0.0354136367528436,0.0541359782679308,0.00743062577263994,0.0119946891786754
0.0405548879577231,0.0442566275195532,0.0073673829593593,0.00272840464737705
0.0422463084621834,0.0474193605476201,0.00818563685174197,0.0114588692532614
0.0508735978548118,0.0523810606973122,0.00892210232254523,0.00773288476283319
0.0357637056504719,0.0543160676349978,0.00590573423502527,0.0072361343340276
0.0547790759953182,0.049144333683784,0.00726600444839232,0.0123351218255785
0.0389850465457065,0.0480786676649909,0.00610849177871336,0.0123797053751374
0.0436860250836571,0.0573129482919317,0.00648161301329088,0.00255013938580105
0.0473393799509661,0.0630951062651001,0.00729114751847423,0.00903306356873922
0.032379249631694,0.0369973197359081,0.00549435482290111,0.00411015634525692
0.0397302386906719,0.064831936209702,0.00812875210545788,0.0122400007053184
0.0464113254419327,0.0561181263734814,0.00761071487675245,0.00539404862235066
0.0371993907406295,0.0483723492646519,0.00733739224244955,0.00439739019416288
0.045684017415448,0.0551658944244179,0.00710221326712706,0.0108531797179337
0.0410531285839548,0.0538576921002042,0.00705910476632504,0.00432706647703191
0.0416333187311077,0.0519525230448224,0.00648024831188397,0.0118401386039554
0.0328356378309462,0.0459235764348313,0.0056474891339476,0.012418473923577
0.0418252747161955,0.0693599274368991,0.0072847225666429,0.0116148726033547
0.0528530262768965,0.0527073961077226,0.00620908257211112,0.00587371842787424
0.0400767935491824,0.050407421832218,0.00747137385766941,0.0108959263715619
0.0403910453545975,0.06404121125294,0.00744659929419614,0.0132385876910895
0.0592577928378126,0.0558980366565016,0.00721863884189524,0.00516300498599136
0.0496174178237711,0.0606803326989697,0.00739556360605654,0.0115236190047429
0.0461916774571521,0.0456666822484116,0.00765175504262333,0.00967318346067217
0.0444952865792248,0.0478075542599121,0.00761069365316152,0.00669321124187056
0.0389274830803729,0.0513056949018228,0.00706256354632998,0.0116754916177507
0.0399273822220529,0.0499356831328033,0.00770028807780882,0.0107704637279535
0.0499896076149641,0.0465618893805807,0.00665353867572033,0.0103325112418043
0.0431163241218556,0.0437883048514029,0.00663255763971082,0.0133582156062499
0.0380386434471892,0.0543530231186949,0.00726253610746253,0.00319250775798337
0.0309275629846372,0.0563440789743595,0.00698815194267927,0.00584188169380862
0.0254591790089845,0.0230826307074384,0.0118704094162866,0.00530742573343734
0.0258209257682937,0.0191054849902239,0.00999706708634525,0.00350853711044674
0.0263176371047878,0.018138849004451,0.00924499491409344,0.00348640849876487
0.02625016665503,0.0146178288572549,0.0123090137425356,0.00466785367181443
0.023406965826125,0.0209248834993983,0.0130031993403076,0.00249774955499448
0.0359114965365488,0.019623888796183,0.0112781771613768,0.00397225557411351
0.0353466959175336,0.0191061357869875,0.0105604377644323,0.00479208332530538
0.022134387569464,0.0214152668609956,0.011330847781676,0.00469550898638596
0.031823004484867,0.0198825670756188,0.0142022014529321,0.00518021777361159
0.0334235817220891,0.0257445243637454,0.014237768079655,0.00492143823614054
0.0256782644969275,0.0433259133100937,0.0184461080989904,0.00594259858014141
0.0366974234177018,0.0395960951120178,0.0187509233862096,0.00585343342893663
0.0371391248695971,0.0374781933493538,0.0179035642956156,0.006180440911188
0.0258435433490962,0.0359363606845528,0.0127964738693182,0.00649563780509397
0.0342280989426493,0.0388150642954697,0.0136229677396245,0.00437855205560066
0.0305130221262946,0.0236162110253972,0.0140832501352753,0.00425417219590223
0.0274497729421032,0.0359437016626633,0.0158192669101618,0.00357329857946073
0.0430293821209051,0.0347979552365223,0.014539804146468,0.00427827251256249
0.0257733389495987,0.025812353359961,0.0114567471626604,0.00433766701915582
0.0276208121906469,0.0236431496032022,0.0140426052100989,0.00388453970990768
0.040965742637413,0.0355575622501446,0.0131978386933986,0.00292163216537631
0.0403208957915135,0.0239067672851721,0.0106868535446853,0.00304171303777817
0.0342641345934372,0.0247235864177244,0.0126431080377854,0.00310453236796898
0.0331561527543937,0.0250157229682153,0.0130221475819562,0.00390377972329817
0.0263878200745985,0.028253933521617,0.0131124500671476,0.00320725978791401
0.0276310952110023,0.0215711747282784,0.0121998087321713,0.0026938730022565
0.0278961850687092,0.0239416786530251,0.0101114195368164,0.0027131592544749
0.0295918154715242,0.0291946205314932,0.0129005267576852,0.00240601762176849
0.025781743096947,0.0242047111938182,0.00973593295909758,0.00274193458009725
0.0374400051577699,0.0218174385555287,0.0110906193233773,0.00211145568298909
0.0313736053109785,0.0201994331196908,0.00885645244093933,0.00201448816685989
0.024629888418086,0.0217981090605682,0.0123462648496749,0.00268004356933451
0.0343573540973632,0.0237213626549712,0.0123722146251863,0.00220561408437982
0.0290886140488556,0.0237844477439653,0.00980351284324067,0.00222433009529114
0.0317556738611899,0.0279316677583099,0.00879953545872984,0.00193798583594088
0.0217005977311512,0.0260638729372019,0.0115945429280871,0.00201628567616989
0.0293030063635788,0.0259326898761724,0.0101626556346914,0.0026705204381609
0.0367059148926186,0.0220413884209696,0.010579796745639,0.00162127235523728
0.0301257899257939,0.0210908939100948,0.0117163557132993,0.00189812167596677
0.0253997000475796,0.0213151627804042,0.0102059486063881,0.00218271442127109
0.0346281000078859,0.025917288342404,0.0115920881994614,0.0021191809431102
0.0298356722061275,0.0249316828183444,0.00939880087705854,0.00224464770979459
0.0305425310556875,0.0232887597597816,0.0105311855684771,0.00227813028089344
0.0314265684995159,0.027116692642725,0.00910353854879968,0.00226255174309147
0.0279727147946632,0.0219000141647585,0.0100332994236363,0.00178955774620542
0.029620924075867,0.025056246489147,0.0124936975223086,0.00187198847011168
0.0240534924519638,0.0261690461335672,0.00942472556844807,0.00210051993747678
0.0434892909945539,0.0239147090507941,0.00892539091989151,0.00231340047730263
0.0213983850592082,0.0201360725124628,0.00910887257056993,0.00243216451814996
0.0232847609540924,0.0184635633052576,0.0109009339230195,0.00191505865330829
0.0355989913388149,0.0161675924930778,0.00901113455319233,0.0020311806563013
0.0293996187862997,0.0261482392352084,0.00853625384347655,0.00211305006344772
0.0323478102635215,0.023123163857814,0.0111154811449358,0.00193672639758966
0.0245568161924687,0.016538332097468,0.00807413860583441,0.00190403250623172
0.0289418680467812,0.0243754085416987,0.0114511382173166,0.0018840562258581
0.0312678344488347,0.0223228892834303,0.00919596968864824,0.00213079779770101
0.0284628555225606,0.0201625841015164,0.00946204431951174,0.00192591891852939
0.0240554750525546,0.0183766970736946,0.00913777911462531,0.0020419486527356
0.0353211801236939,0.0200844240108632,0.00943320068863219,0.00189477173776376
0.0315284785488137,0.0198288500110083,0.00819655798626299,0.00235571469874543
0.0302523732364995,0.0385009691741876,0.00850699075119248,0.00264041765840761
0.0386174967760431,0.0342856177432746,0.0108118415715712,0.00235891873580485
0.0212280206793663,0.0411416197020153,0.00886649537160293,0.00252186672269124
0.035826043479498,0.0370218872571386,0.00812994093465696,0.00233088988796104
0.0441423723519598,0.0359038082058312,0.0102484995005261,0.00229109340489384
0.0308539158802871,0.0393688098476509,0.0273492547711426,0.00224220359476435
0.0322449419173773,0.0364282180974211,0.00681982961681265,0.00242366217568358
0.030021894128196,0.0405086721491817,0.00701436065673618,0.00237647175626973
0.0270180153058691,0.0357244013861613,0.00979681556668578,0.00285973482040496
0.0318915849011453,0.0301424233852464,0.00928822322037213,0.00217506011316826
0.0289732798570468,0.0430339658502861,0.00782539439360969,0.00204726067556603
0.0196930425121504,0.0328141937676403,0.00743506621718405,0.0028923172015758
0.0304847797163798,0.0425030737818949,0.00699568668336897,0.00228939916992673
0.0230215682497122,0.0370440571522871,0.00816387839987066,0.00253810938913258
0.0267257617869496,0.0469023623246372,0.0112199010544081,0.00252639779307611
0.0287702323368364,0.0455833329522466,0.00906536966752077,0.00261745895018112
0.029660581012139,0.0411385511073525,0.00922640946186886,0.00276987933813375
0.030772389261553,0.0469417505965118,0.0104905010772083,0.00249482502075419
0.02084915744473,0.031446606142086,0.00715230983402004,0.00216560252904863
0.0282673822903608,0.0405131192956657,0.00851619417613962,0.00256903000965898
0.034292575693767,0.0490559600373584,0.00887891775352237,0.00235255029739829
0.0225977610701786,0.0390445685129457,0.0103690767608611,0.00245463803668371
0.025981898168425,0.037958685412015,0.0117082410835461,0.00204213455143158
0.0291930476008086,0.0445872256107178,0.00868738105480128,0.00290555422304962
0.0216093996712898,0.0477618218414612,0.0091029223544519,0.00200927024098126
0.0254075485481732,0.0470871893052326,0.0107726717878587,0.00235274456191242
0.033635691004664,0.0337187576133457,0.0106266603288638,0.00310141213724135
0.0287828372273666,0.0333669867145412,0.00912320309814863,0.00228517822084665
0.0373360209881105,0.0347076388826932,0.00979364448392724,0.00200849294746023
0.0321476269081535,0.0394236700252561,0.00976654003037085,0.00206643492797168
0.0339231998709154,0.0532298069388877,0.0105918288063722,0.00229178393400104
0.029115479512183,0.0364995550482795,0.00887964349907895,0.00263988554598436
0.0285872690608269,0.0350096061287687,0.00657018688630545,0.00276705423397878
0.0245751701971665,0.0388650791448512,0.00663137147012389,0.00205583174452452
0.0231715609096528,0.03342481373342,0.00639728810960557,0.00264809312463496
0.0321687442069596,0.0391488047648629,0.00846053418176612,0.00190266220116518
0.0316397087584208,0.035067594396335,0.00823754525399948,0.00239375938747837
0.024859704349463,0.0452102970634886,0.0107146361145178,0.00274443284839187
0.0337787100657178,0.0388319013200987,0.00919803352230595,0.00222251389479211
0.0281959152788458,0.0401263229411206,0.00665879489384977,0.00221550993824108
0.0275784909867049,0.0330293901874343,0.00700897504941981,0.0022086719261034
0.0297089568444604,0.0420386938467934,0.00691339138252161,0.00287178522766356
0.0237239887281683,0.0409625874391097,0.00847899808628932,0.00156682911193888
0.0246854000218751,0.0352596580030933,0.0113142668869253,0.0020873538440131
0.0253560695394947,0.0387171590813387,0.00810034922477396,0.00177920785186708
0.0251216828859568,0.0376653385353981,0.00949907781967463,0.00261742178346267
0.0270208381547566,0.0425673665141866,0.00675077050138417,0.00211143497287995
0.0287796094778764,0.0405625058860261,0.00845001706866466,0.0022531779821241
0.0305949869194414,0.0523892515039118,0.0121786194451644,0.00205176472307034
0.0216973992077462,0.033447389058334,0.00899709020217167,0.00157843831070568
0.0271450312655373,0.0319696486178846,0.00884379776709994,0.0020585852006668
0.0294861508610147,0.0418241434893784,0.00832588662938092,0.00276042798189622
0.0258290943203817,0.0468170409168928,0.00930439707758469,0.00245275506079079
0.0257627785705784,0.0385140682488293,0.00914016697613544,0.00273159107610922
0.0252497364439954,0.035107046585711,0.0101354373421269,0.00252240395471847
0.0339406591177728,0.0341288929208326,0.00674437920292634,0.00189852830960406
0.0318438479817141,0.031451146994947,0.00967811244601095,0.00285524455134017
0.0272727546127714,0.0396539820912374,0.00809026303269981,0.00243805278283989
0.0315242191175149,0.033475232173292,0.00817036825992876,0.00254612252120462
0.0265440520237711,0.0373146895693057,0.0110970628192187,0.00314110227736876
0.0342919288196495,0.0320002134482,0.00722410907465944,0.00226874992366926
0.0387168084261689,0.0372941542673458,0.00634895720848255,0.00192501080332202
0.0404417091098947,0.0321867336683001,0.00836911663110601,0.00168223101991691
0.039982089970783,0.0345293656305136,0.00694494360539332,0.00224187090335386
0.044231912627321,0.0372666452009694,0.00702386781892373,0.00182016851251964
0.0399969203835083,0.0352167383434003,0.00689805846974498,0.00158610790245793
0.0345153567703999,0.03575367974023,0.00580037957317819,0.0017382423988782
0.0346777809790697,0.0310443634131244,0.007308900447352,0.00163851602539208
0.0341132920030294,0.0303413137263339,0.00733315000909014,0.00190396342263366
0.0436310941545316,0.0323498553240682,0.00664622762778703,0.0020909613121796
0.0302286539804353,0.0314065537858728,0.00807784998552401,0.00223805150536775
0.0345133456012318,0.0283924385706445,0.00790838938044019,0.00219542700014332
0.0334046383403311,0.0286756108629428,0.00707009178449745,0.00163723422771773
0.0365862278993326,0.0356092613694759,0.00658988541699192,0.00207274825723166
0.0388755409872143,0.0366776540840141,0.00645822407419378,0.00203483813776074
0.0379293385529991,0.0350273757680823,0.00762871559016366,0.00180762399193629
0.0361013952115865,0.034861797223469,0.00628807087957659,0.0019080362986217
0.0348007581736663,0.0325562233526636,0.00676850339646943,0.00168292684833863
0.0424638522126068,0.0291397930009147,0.00687071408233248,0.00167598878133634
0.0370087559973436,0.0379999705788496,0.00726921503369241,0.00247585402801373
0.0405009903698741,0.0316395777154275,0.00661602795404782,0.00204194582929267
0.040293780009045,0.0354903567845617,0.00585988924357388,0.00163541687911262
0.034469652445457,0.0273941916277527,0.00575631065648503,0.00174663042948453
0.0406461501018153,0.0312642829411724,0.00634623406586714,0.00172750819308538
0.0334054574223818,0.0506525193824679,0.00741120043790095,0.00218661570674297
0.0404974282651167,0.037667864842846,0.00594838693502883,0.00201165893752565
0.0329465130333431,0.0321120543332343,0.00722353725273182,0.00200929570689111
0.0347677968439152,0.0274965756764476,0.00816011085166266,0.00192510846735691
0.0367747100953953,0.0371687944979007,0.00683183013315485,0.00176403832988386
0.026990263055892,0.0383691146581969,0.00543849994313362,0.00182079977152545
0.0337238888371814,0.032590036988589,0.00590058205621231,0.00159474661158
0.0448928205516741,0.0344412243973945,0.00558811054122186,0.00172512294597066
0.0359142724325808,0.0291756445634877,0.00592198689657762,0.00218589169851888
0.043188862786171,0.0444338595009093,0.00629839907475568,0.00212337431342779
0.0361240555240227,0.0409757234486225,0.00636506567576688,0.00190448923641512
0.0365890972066942,0.0353795957810963,0.00620095515894345,0.00157831972905127
0.0353701540855107,0.0383367858350374,0.00655831040348468,0.00200105798727892
0.0349978362348427,0.0364795363813637,0.00604914619017009,0.00177997075333259
0.0348961087882831,0.0371007590991894,0.00741161150994156,0.00184295705964922
0.0367644502015818,0.0471525842009011,0.00513388241885932,0.00193314056533512
0.0415351242301756,0.032078230459363,0.00586055989609821,0.00163121228632471
0.0388395836045798,0.0257058436289362,0.00558614836802868,0.00200509753180997
0.0330937735732052,0.0267457390577663,0.00561229214086666,0.00198134152973981
0.0318110573345869,0.0293716847549973,0.00543045391376503,0.00146876184257715
0.032835673325741,0.0285250187759404,0.00550727413765626,0.00159667797273078
0.0288653199938049,0.0348097262951567,0.00425247829162822,0.00193576866216091
0.0428793934376894,0.0289764566901255,0.00682174089759513,0.00168000347827169
0.0354516096237101,0.0322524511391647,0.00634867942760597,0.00174163590324507
0.0415120808875788,0.0344090294014916,0.0059873306698408,0.00195860418462117
0.0360025648335346,0.0360659123905782,0.00690341474399186,0.00184991365832048
0.0284596871637392,0.026659512852237,0.00570190607211804,0.00193655332016867
0.0354430730576345,0.0329908333676156,0.00684178820578624,0.00172844441083797
0.0361018578034648,0.0350275262372074,0.00753332630398628,0.00215219934502953
0.0431565751322076,0.0281094166072263,0.00629496962369052,0.00160679915433619
0.0374613690645048,0.028848403585203,0.00565080081634443,0.00181097704107922
0.0433232824291741,0.0297077346804215,0.00642274962995901,0.00185979314388006
0.0401328784818619,0.0394607727489254,0.00539050866915276,0.00207573474663682
0.0372772269438915,0.0319429163267748,0.00689110514435199,0.00185328979458703
0.0323278391097099,0.0324686520434159,0.00608195909882175,0.00209450135662172
0.0348958249148765,0.0384684639090907,0.00484291696816899,0.00206002953514062
0.0650644081551519,0.0554914572461575,0.0118513303878601,0.0121985084508863
0.0626515521360629,0.0673214830144167,0.0144662137938005,0.00611063885105295
0.0455783130884327,0.0459585478299791,0.0125350058142081,0.00525312864032527
0.0632004756476001,0.0593896360791112,0.0148246160548231,0.00706636614498147
0.0653558659050757,0.0455686983459153,0.0134809412588708,0.00828010544709431
0.0610489676618506,0.0510278895275168,0.0124235942163197,0.0116944535343777
0.0543043881798946,0.0501594422066428,0.0144871359607624,0.00996816104574936
0.0452511531870965,0.0641343060530653,0.0156962043007117,0.00380804066256552
0.0782447083085616,0.0713229158219919,0.0172148947116117,0.0100114260442986
0.0683523594404916,0.0637517611754847,0.0129188815225668,0.0116179181886387
0.0554869721945341,0.0621904008388993,0.0112791830431682,0.0139677773811659
0.0598414513601907,0.0518296390854638,0.013310548294354,0.0116235754001804
0.0709761539316571,0.0505084788240286,0.0152287640776492,0.014696137499663
0.0563971280879517,0.0520360807878483,0.0147018609173195,0.00991451455422547
0.0700386074757446,0.0511026951568238,0.0141576706887381,0.0125549547830313
0.0503762513850763,0.0512475722276722,0.0137737337277944,0.00487660930093411
0.0646313014554662,0.0464698738348,0.0150359714133221,0.0108380735725555
0.0496979548783941,0.0621586364293747,0.0135016250397981,0.012444503709921
0.070031067954378,0.0816035928794576,0.0182105623473615,0.0150161804113512
0.0871542844892935,0.0892174728234976,0.0179703307744936,0.0334177452150115
0.123279382223522,0.105487703434314,0.0189743031186799,0.0404662427464086
0.0855587158099759,0.0754320068504046,0.0220942371090466,0.0559368172650434
0.106377171100041,0.0908903197930566,0.0184492372538753,0.0429407537632264
0.0863958751022399,0.0698486073897535,0.0153376165566395,0.0220454578820268
0.0672437487935024,0.0747076202685812,0.0137344121073368,0.0159646934672311
0.0649695122047685,0.0594109400301728,0.0171742496249779,0.0167180806365903
0.0541628837246819,0.0658785668742109,0.0197410980661359,0.0157456639215006
0.0605280034187969,0.0614225019067961,0.0196354720144869,0.0270673375788834
0.0764638442760279,0.106310718762438,0.0193057202166129,0.0511309811552351
0.0620711231619172,0.0606531057649122,0.0206941177923028,0.0324547793841491
0.0582887114756525,0.0669891322510036,0.017170141346657,0.0161960730798148
0.050876836544424,0.0580971652809271,0.0121109995743068,0.0515023139913025
0.0601946595641876,0.0692144706888945,0.019120479447408,0.0568631316315587
0.0727556923705318,0.0649742021534327,0.0175168232095018,0.019336008697948
0.0616714509300861,0.0451932965093821,0.0113766104889057,0.0186265187465835
0.0524084973092278,0.0555169224550379,0.019429389371311,0.0286673080189241
0.063536285502349,0.0635802814262646,0.0202259256309915,0.022331096319725
0.0868473294002436,0.0659381754135484,0.0167631614409444,0.01527074835697
0.0645584261881002,0.0519594000040246,0.0119020305289867,0.0157537170597226
0.0659754562147185,0.0573083133962208,0.0148211590227071,0.0133839579282149
0.0487674815899802,0.0665286892233093,0.017667169763921,0.0170637022520239
0.0576853415110374,0.0668470945157332,0.0151848859783226,0.0142620251671678
0.0674601186248954,0.0433391608266729,0.0134421749516885,0.00849206571616399
0.0665362934672601,0.0564689350570216,0.0121201723562554,0.0043905099386642
0.0560956080947578,0.0495606289320789,0.0164349286382913,0.0143906593302607
0.0671900853297739,0.0561561985559906,0.0153896993228403,0.0168382532799853
0.0959909733070407,0.057970730610386,0.0147877400300405,0.0046985843510053
0.0770289922820716,0.0653264817315265,0.0217271389147616,0.0112049661489815
0.0838821033613257,0.0601107847384322,0.0137299654492778,0.00442347047217552
0.0940187110111905,0.0643538668050664,0.0141573902635532,0.0136154003304398
0.0916888795939019,0.0673015096040795,0.0147425175985514,0.0191240658069551
0.0831265457421155,0.0619260300650802,0.0171599916285423,0.00933325140324843
0.0614008279342666,0.0685408353327664,0.0201848502591168,0.0123288563729438
0.0638572857824178,0.0691460598347771,0.016703073375981,0.0104536935849809
0.0613998528856754,0.0655346453635271,0.0203403617741724,0.0136465767377424
0.0803138150975425,0.0752845678249291,0.0196643724801367,0.0128359042190173
0.0613687745992532,0.0688904166271483,0.0169252798236456,0.00496627418088304
0.0758186734054337,0.0719653948780129,0.0165038821886892,0.00807999112510932
0.0800751687205078,0.0783505463492021,0.0133013930937143,0.00668190620000503
0.0553431458266136,0.0688180779811752,0.0207756275953274,0.00994371585738762
0.0385421695449845,0.0566078656460131,0.00910164230198859,0.00182799226702983
0.0393040907667272,0.0452054602903587,0.0070854868452585,0.00140974757004906
0.0312741110583134,0.0479304838578479,0.00833122391859619,0.00138995060079428
0.0322680982019729,0.0599912356424917,0.00897921341915349,0.00127152585910518
0.042149161479453,0.0550226941831292,0.0101912986813747,0.0012075897162564
0.0340286174732907,0.0517588685977134,0.00847391517822656,0.00180598217354233
0.0400697835354474,0.0476373137352175,0.00889924845103008,0.00149706464719792
0.0396847147182372,0.0655184326356616,0.00935634936465661,0.00147689037806795
0.0404921116669976,0.0565111027584156,0.0075358154924574,0.00120839488786149
0.0530532141101693,0.0572201732367495,0.0113698551041073,0.00131226881342002
0.0536358872806691,0.0723416026320705,0.0119032485227842,0.00145942716544101
0.0356442022072141,0.054933303292364,0.0103647411133597,0.00106568205796752
0.0346553989957338,0.0604284266416176,0.0105309220113094,0.00171975565805283
0.035088976778708,0.0466710882008636,0.00743882378357279,0.00124525836612964
0.0308162265182201,0.0559165725798131,0.00960817313105333,0.00141160069851312
0.0585762964315766,0.0540318675231871,0.00993819333657768,0.00130903840939433
0.0495377944338379,0.0626835663785388,0.00967305342433653,0.00523822112321604
0.0431632341992875,0.0460788290060917,0.0077035216189177,0.00176060309639453
0.0374838389936509,0.0562361429932457,0.00978691069675067,0.00144830345559671
0.0319583684516847,0.0594462683306193,0.00641353808034299,0.00115331189431159
0.0435045640924783,0.0468178036398829,0.00850825477234975,0.00108341366658197
0.0430238952135174,0.0677689452156037,0.0085618958397812,0.00121241082084454
0.0405233190089473,0.0569988146407578,0.00716984806584038,0.00107329984553265
0.0345977671354778,0.0464106726342814,0.00829009291483702,0.00118365266881911
0.053887018052414,0.0649808706231392,0.00971706352761053,0.00141495784613745
0.0471484238844561,0.0633269021977364,0.00849329189213781,0.00130809847918463
0.0365702543259754,0.0560290126414336,0.00928726292098349,0.00135797964848067
0.0357048622700829,0.0508339548852543,0.00919468148800432,0.00106041134778644
0.0416485433888812,0.0613847530425231,0.00648309079586852,0.00117506480905812
0.0525329544534357,0.0550722650431879,0.00847059038586005,0.00105661530338686
0.04367197610481,0.0462261316117212,0.00858225402019587,0.00115694590044621
0.0567552939251385,0.0468926474942812,0.00990007495589499,0.00116987573765015
0.0331073711214803,0.062579895404126,0.0073380451883875,0.00131458505789583
0.0440614370440156,0.0561908522097113,0.00688532325969551,0.00131196763246102
0.0503050647016222,0.0607561346324209,0.00712167135569593,0.000945920563816617
0.0423841803097922,0.0572885550529896,0.00985041319855576,0.00119042907596052
0.0399619087972873,0.0446541848222928,0.00738350121371712,0.00115875324770601
0.0466870068778732,0.0484371128387977,0.00797872171603198,0.0011127992856968
0.0409770257024988,0.0520055117616759,0.0110366828594025,0.00113888673261203
0.0391339023708396,0.037523929955662,0.0105388466769293,0.00107097851681908
0.0413411828796316,0.0525247345409623,0.00645267280147001,0.00108088075933969
0.0341153742373841,0.0551648063947461,0.00801187688003083,0.00129500637634849
0.0397893313170536,0.0606817372320818,0.0103275937569849,0.0011510934793592
0.0404037898672568,0.0472944001141488,0.00849558283737015,0.000952387637845304
0.0501540816465965,0.064973936362971,0.00735856933395572,0.00110380610908817
0.0458593630025423,0.0687393625254813,0.00872465495256489,0.00113592434060715
0.0269525932697099,0.0496518921133918,0.00818748862680243,0.00105722244565485
0.0438234354391247,0.0536547049097411,0.00754031418520499,0.00106860452713716
0.0433002413112965,0.0633685163081439,0.00830971062917951,0.000992347410039997
0.0418215790646203,0.0635039669457377,0.00848079218709879,0.000898950158049287
0.040342925633861,0.0603298792577722,0.0091930968387829,0.00120394018080369
0.0407377907349356,0.050837913222893,0.00847449306966926,0.00118853796914219
0.044301264809573,0.0524458307304008,0.00694052412898204,0.00127956698829961
0.0353501379855803,0.0543593990023963,0.00688772383211984,0.00108509477636902
0.0304178751163947,0.0605247429745896,0.00915489597273682,0.00121353553307731
0.0432417162785673,0.0512229796188866,0.0092313749177052,0.00119946596372092
0.0345315916066625,0.0494056157096441,0.010149700201538,0.00130143846927841
0.0403479986008989,0.0660403952027794,0.00865854115305763,0.00109533980438375
0.0382957448599863,0.064993450595778,0.00848850174000912,0.00127897982151997
0.0549286540632837,0.0615346261907859,0.0100214023851468,0.00181049558146985
0.0132897248477865,0.0353577403387777,0.00494707310163225,0.00157076338463888
0.0183303802718379,0.0245099725802935,0.00453860797647642,0.00123984780975203
0.0167546677557413,0.0363037613659614,0.0076023076043563,0.0015127152573628
0.0181776574795515,0.0330615062129413,0.00556088611700369,0.00163474532028279
0.0177770501685791,0.0406906912833933,0.00527537566914411,0.00132610079087227
0.0127376538619974,0.02584360799736,0.00489091282868027,0.00181265100569028
0.0159413651185097,0.0292897441744396,0.00424122830141098,0.00149419707458643
0.0200125330843286,0.0280652390652651,0.00462295211363542,0.00139447897623332
0.0167095718202411,0.0382530150144151,0.00388320344875251,0.00114810718357651
0.011667031152852,0.0283356963552082,0.0043673815356309,0.00119478288654299
0.0184063870949328,0.0302663473845622,0.0049471889018739,0.00135539620885247
0.013131436075507,0.0257695494364893,0.00554364387023339,0.00147091807361533
0.0164487054188659,0.0319749967445195,0.00468098485431692,0.00154326311230457
0.0181478155301347,0.0310214517155743,0.00469090739667168,0.00144848082566064
0.0154636056361811,0.0284358330956005,0.00573057231738856,0.00144668405681038
0.0149433864503035,0.0347414962070926,0.00428160792176958,0.00131401258483066
0.0134621519001283,0.0315783342159252,0.00454519756481717,0.00121927392205406
0.0134614464801738,0.0272955039297936,0.00364055103858292,0.00132755274836518
0.0128230919510178,0.0308965911265756,0.00365530206906968,0.00139124127895608
0.0132001426710122,0.0281359060952901,0.00456253721963908,0.00115361314219787
0.0154310993801682,0.0294048758161228,0.00554214530279263,0.00158481291411786
0.0168598229208948,0.032358770084923,0.00442402048078674,0.00126372014963787
0.0211595609274734,0.0300364053860459,0.00343370240588009,0.00141750271602448
0.0185616832500969,0.0297168125800683,0.00471758914545352,0.00123079592367468
0.0132538288307355,0.0292358162735766,0.00460597140126967,0.00146345880330444
0.0174218440538201,0.02761557639396,0.00432012640783174,0.00128164286343999
0.0133430951333241,0.02608764270021,0.00435948587977276,0.00134886688097385
0.0156698912818905,0.0330612078442006,0.00408614506957489,0.00132188444377787
0.0153466492451345,0.0323637486495854,0.00500588710231073,0.00126846663867035
0.017055702756732,0.0295043424757053,0.00404155725260888,0.00152887268615842
0.0173540200511493,0.0340106124875577,0.00489907606473366,0.00119181045439995
0.0119629006754559,0.0386252197364671,0.0055787793328641,0.00123996842739159
0.0188532789576091,0.0357826977554472,0.00427516582540449,0.00139935196909259
0.0205794976186571,0.0297684832762315,0.00373158657854148,0.00133948521051501
0.0155984786300563,0.0297558871970015,0.00328963668775816,0.00121255761163821
0.0146729750458854,0.0374513018418545,0.00440597316483101,0.00115894852697756
0.0133108251574439,0.0320450317269215,0.00368942625502174,0.0011442157685737
0.016599619099911,0.0222636117400187,0.0051396544402955,0.00149748688935595
0.013233485506548,0.0288879597858982,0.00387036332941165,0.00143134216599326
0.0154230664984615,0.0254702952440416,0.00427759207437032,0.00141313710519023
0.0154056541730498,0.0232359299546672,0.00458067911175108,0.00117499730694582
0.0118737386149749,0.0257870660072565,0.00407436571123343,0.00136825019072236
0.0180367336328712,0.0276075147598486,0.00397323749757257,0.00121515513832007
0.0157218192672051,0.0301075709595892,0.00375754156158453,0.00123106944848211
0.0156754639037912,0.0286158199617323,0.00466240992392476,0.00134297046773649
0.0129052463118854,0.025016058937035,0.00329230107990727,0.00126676246441522
0.0119242836754221,0.0329528421190033,0.00446216294765325,0.00144495019544788
0.0169694762635056,0.0270133615011444,0.00358862033587963,0.00131653723731288
0.0165476113325957,0.0298873174784397,0.00430219091547294,0.00102840350480402
0.0153263115820837,0.0255140797842576,0.00535993534904438,0.00112408206535024
0.0148583560516599,0.0300895346768534,0.00443507898086242,0.00126645864656574
0.0152895703333498,0.0276991081447486,0.0049385850929877,0.0012792288676696
0.0122332155001236,0.0254986251628538,0.00345950633580582,0.00108725930696092
0.0141403569788308,0.0255565965741478,0.00484848247997105,0.00100136855418004
0.0161619531447562,0.0293794793544571,0.0037672853298426,0.00133500135013418
0.0165629028483912,0.0302474522317297,0.0036885203874569,0.00122184959485686
0.0117832823888426,0.0296655539910143,0.00535059673064881,0.00133189112918906
0.0114648423619901,0.0322082325542389,0.00454592481724251,0.00131768097827861
0.0164996302894893,0.0270104022808902,0.00476301613771751,0.00143447854046722
0.0131759031621652,0.0266718302745394,0.00355563850482891,0.00133051376925978
0.0317833131512682,0.0306483739215479,0.00960167839818375,0.00122536944520603
0.0259174871041434,0.0257229104596439,0.00880504230428207,0.00115618216354047
0.0292013046035768,0.028846848898512,0.00825482276219329,0.0013399772499724
0.0282862189359235,0.0323708273056413,0.00930271292195647,0.00129016460707671
0.0275068132722253,0.0225790113858449,0.010631642315358,0.00119671832937445
0.024081374324072,0.0193340995883355,0.00843653367328872,0.00114205779038903
0.0265124569813176,0.0250735547306638,0.00917308588037195,0.00109171120023773
0.0326691470296298,0.0280183019946831,0.00911904065155882,0.00109622458951848
0.0222578837401525,0.0240916555650682,0.0102434846815267,0.00125366432010859
0.0261528033180499,0.0235243133064184,0.0099053763700352,0.00124816081353818
0.0262424891420574,0.0212478551365713,0.00910206679477781,0.00104155275448948
0.0248700632614553,0.0226827412583027,0.00810063709229673,0.00122067746552557
0.0299162320132511,0.0360364312802722,0.0102930236022217,0.00123285420254853
0.0199128204146749,0.0197268129064542,0.00629158851695606,0.00111206213468702
0.0254158458567289,0.0210411647908207,0.00953755286066596,0.00128809993680872
0.0230790661831442,0.0201093101949996,0.00742576262799132,0.00102218019667037
0.0283280161436189,0.0229867476988831,0.00821634094342313,0.00110350937567831
0.0305473319655626,0.0265145733766717,0.00733848382038942,0.00123330377371363
0.0292511867346303,0.0249436440357876,0.00939943609799635,0.00132042929161482
0.0277728165565193,0.0291519911213805,0.00921112638572961,0.00128948246546543
0.0291795166021197,0.024615281897105,0.00866750347824441,0.00131178603529701
0.0275607339856255,0.0227991053948514,0.00759034491047078,0.00110650453486027
0.0210252717388224,0.0234584641612995,0.00931563446667909,0.00104252735188906
0.0307443709804437,0.024338533352077,0.0101745132064551,0.0012984734339862
0.0323423913900569,0.0276985000994231,0.00979722981688136,0.00125563901231656
0.0256466614642874,0.0255710143818206,0.00698195652336678,0.00121543946402614
0.0308843659039575,0.0275599612294528,0.00898600815844373,0.0013037167327553
0.026833791221254,0.0258786541035567,0.00903983277811698,0.00118236226077182
0.0277737627260648,0.0256881081809167,0.00947656241253757,0.00117008510936594
0.0232650856294802,0.0290657214908217,0.00919297814852307,0.00112685199284819
0.0295919974742572,0.0286750498462361,0.00929244238806306,0.00133215360375038
0.0215248402197059,0.0217299399697026,0.00889801205809812,0.00134331140704554
0.026153456457333,0.0216413237036956,0.00966491149738414,0.00127367799631498
0.0245103626351433,0.0293338847417368,0.00785686522773421,0.00107948542431333
0.0301130012951381,0.0278160540168682,0.00920026004017704,0.0012901253921503
0.0190366934057337,0.0261770355979441,0.00977336729307628,0.00120408737523166
0.0230497550663938,0.0246495755478532,0.0087275549548893,0.00119545338167827
0.0286416411363416,0.0264003963985761,0.00747256203201274,0.00127707555011057
0.0296968455900813,0.029250229737823,0.00770022541606032,0.00147147685956604
0.0228140593078962,0.0241896364898698,0.00898552713640493,0.00142666402678422
0.0282578411400096,0.024751918825776,0.00729967928654459,0.00113060245736789
0.0323382901507012,0.0281579219807045,0.0116413913661772,0.00115122650461956
0.0280813226541482,0.028265660677966,0.00789753192293875,0.0010710846093768
0.0299440157745851,0.0300841611910837,0.0100216745866339,0.00122004641553956
0.0301337286653406,0.0261010156323486,0.00854898933858615,0.00112940008911927
0.0369285423120872,0.0288379619704297,0.00728024099233024,0.00117833138414298
0.0249373420609105,0.0278293075513791,0.00715085794461121,0.00125936842940363
0.0279828205748169,0.0267444295865468,0.00815327427830409,0.00116833250587986
0.0271553510329405,0.022227002795551,0.0109845407793977,0.00124208127008622
0.0284846171072579,0.0369293607975637,0.0106957694208984,0.00126396771655907
0.0301249924390725,0.0275935175536312,0.0101589995956412,0.0013594451401629
0.0278208994182989,0.0320352771056885,0.00895140429424036,0.00111523813259551
0.0241774764961337,0.0258343072498032,0.00727612343413334,0.00118163426057224
0.0393653906729257,0.0306088106464076,0.0106815045749444,0.00116441786702642
0.0237295307621878,0.0285016157076292,0.011605690516719,0.00108761987145462
0.0338742171468834,0.0286820812507196,0.0101422703731138,0.00116101747225899
0.0347140673631519,0.0254688807589633,0.00841913957396905,0.00103214306097564
0.0293123141272652,0.0252518592509022,0.00809544503049797,0.00117644492716744
0.0423613527243711,0.0332301594614908,0.0146032164275858,0.0014304810576049
0.036120913873875,0.0343681809062273,0.0114031636961597,0.0011862195187982
