0.0255674819816565,0.0266986456935928,0.01489160958817,0.00775941520464253
0.0196588643614088,0.0209373069862394,0.0134969820484604,0.00753126862601215
0.0225768742061075,0.0318561888339067,0.0129097540412426,0.0074746301755346
0.0204173510943753,0.0267976943134522,0.0142838234531085,0.00736629751047285
0.0230765932403301,0.0194670603346471,0.0113494537446047,0.0072117099264697
0.024885730605571,0.0218235260832919,0.0110090216626864,0.00701337632752175
0.0218439145406965,0.0238530292854635,0.0144360012048752,0.00768997255495136
0.0230235101332604,0.0240097029201807,0.0178788076108551,0.0118918351218784
0.0213147136195698,0.0266000852296957,0.0156562301310526,0.0126531011434424
0.0257493638462677,0.0229271362994759,0.0136749010374551,0.0116253041148266
0.023920202368394,0.0208866687457382,0.0136342692528836,0.00846310015673637
0.0154745334028202,0.0173267399570512,0.0125465837385616,0.00660509629718485
0.0252565986464512,0.023880790609728,0.0121728620637692,0.00834262781065843
0.0217252421868503,0.0232855493715957,0.0164975309414993,0.00856964537156929
0.0228500381859751,0.0230104959641671,0.014172768060508,0.00905584469188144
0.0230303954538197,0.027068209070684,0.0185479376658367,0.00718892869787093
0.0237863689893223,0.0381782985174475,0.0159122686587134,0.00797655318363835
0.0277257545541819,0.0304127113628366,0.0143602717876432,0.00741626493417676
0.0335034980050795,0.0337518491645869,0.0132730434806056,0.00453983349300447
0.0303969600054589,0.0328973950241803,0.0157430321500388,0.00628357876963957
0.031031904625126,0.0320107652213586,0.0172281706245895,0.00541225756991462
0.0266893681749921,0.0281073059636015,0.0115105824979051,0.0032422190534678
0.0308248615356122,0.031935591763558,0.0130644605122258,0.00415823517673212
0.0302159355604425,0.0336588084729309,0.0124552179093271,0.00475464395838306
0.0313493307735964,0.0400167800164513,0.0145916234174935,0.00430507023569869
0.0316192631558799,0.0279735820247371,0.0127994106155943,0.003681342914267
0.0363996491077086,0.0348201194434834,0.0137894928525044,0.00353250899708596
0.031557545478482,0.0391415137037305,0.0133895069260278,0.00365709592832494
0.0283752887051877,0.0306390196011198,0.0131516632842828,0.00279335292936173
0.0277476010660781,0.0357400186916174,0.0133056143225886,0.00250960396443072
0.0251994525093094,0.0287977131982051,0.011276344357777,0.00219309340316245
0.030752162953321,0.033176810787348,0.0104446197251087,0.00267934184913893
0.0309966700959597,0.0321051019556628,0.0133340794440388,0.00299141427567088
0.0318875605017026,0.0293989411957796,0.0110515541327246,0.00308545612382429
0.0281170689515413,0.0386641751562452,0.012829412988553,0.00430437214174122
0.0320334728386078,0.0289469079933157,0.0125630763278957,0.00324590951227104
0.0225887064889229,0.0287468727270012,0.0125109991618741,0.00294799660318152
0.0356933021426943,0.0245088673191356,0.0111809584919943,0.00293635621317332
0.0260122489877496,0.0314545412551501,0.014610468652871,0.00210387888399428
0.0258579502219347,0.0413837630759299,0.0131589930512283,0.00306027882766671
0.034555400942424,0.0344562982308349,0.0149034787335502,0.00370944866898728
0.0310436952424142,0.0279507495182023,0.0151099767921287,0.00310550491910689
0.0314826987291276,0.0282267964778782,0.0122734319355744,0.00332118745274027
0.0280601414056303,0.0303357840714621,0.011789021355015,0.00302967062056526
0.0281788686372159,0.0442023450202327,0.0114448785664478,0.00293911180283086
0.0342926098364082,0.0303403469702062,0.012275104640352,0.00365611672002237
0.0473277900954698,0.0328359504789389,0.0164018460153466,0.00329648302124314
0.027870244769199,0.0367412622603486,0.0101227512649724,0.00303804148454256
0.0486530110781996,0.0263702896920338,0.016334034746092,0.00319815778903541
0.0314952110295398,0.0257503178958576,0.0119032465924186,0.00284350921041298
0.0349173942701878,0.0268360132894019,0.0103838093834995,0.0032278173522803
0.0325381230616092,0.03284085325484,0.011811796660201,0.00317191843526816
0.0325567344313733,0.0311059707023231,0.0104847339028453,0.00291553354251349
0.0273259364899691,0.028723385483911,0.00998105532049794,0.00259798789215917
0.0267606227445779,0.0246520638359919,0.00956983660471627,0.00234770652958604
0.0275331446159912,0.0341956416286989,0.00895900767096802,0.00315296523854107
0.0312027907574832,0.028972227049959,0.0136929324096872,0.003353752394373
0.0277907926264135,0.0252665523565671,0.00917204535910878,0.00314614663063806
0.0232395242001003,0.0297974201598055,0.0185207213790298,0.00265368218952461
0.0301844605713191,0.0286187337532731,0.0133174367776374,0.0030021246950618
0.0187372407384056,0.0463757143544445,0.0136312999731973,0.0117677727695253
0.0184254814034929,0.0364289218776623,0.0116276405276408,0.00998084861183906
0.0202058705950056,0.0645878724455114,0.0110295312589389,0.00678306219135517
0.0157948651049601,0.037021797778367,0.0101195911614744,0.0104145070847842
0.014201750969972,0.0432318371432747,0.011297280594579,0.00635860860045333
0.0182705040191034,0.0668547827314368,0.0135961830952169,0.00902006103452812
0.017200205475821,0.0423146108728719,0.0133131051404943,0.0078475733858886
0.0265695619136403,0.0367031983454774,0.0110306616023935,0.00833681814520681
0.0180203091465414,0.0593071192896149,0.0125828126614707,0.00787182222945837
0.0241242686193292,0.0652502360720434,0.0192676968560135,0.0129030671956176
0.0342661062529546,0.08651236335118,0.0193893112473708,0.00920631059144865
0.0384203768718307,0.0674495987565347,0.0177445769600996,0.0166839621689397
0.0324390925088633,0.0704699661235422,0.02017352926903,0.0159771938911642
0.0350080002154644,0.0831518214961255,0.0181564702704718,0.0141141726551813
0.0246299457134389,0.0548995238516561,0.01503914346786,0.014012245349506
0.0224308936115801,0.0544599880924583,0.0165098455063375,0.00889874802808759
0.0173357598957115,0.0516959156552011,0.0176078944435654,0.00942548525132092
0.0177568451900348,0.0513308297483702,0.0347628946010507,0.00726129083751336
0.0179918848105429,0.0505583558670211,0.0141378229915364,0.0107896416838129
0.020539613141017,0.0478694107611412,0.0164424660421118,0.010959438370606
0.0309273828515109,0.0543482465912223,0.0244005982233639,0.00882426389667234
0.0381936026583043,0.041318627262903,0.0195735783398887,0.00877746031583159
0.0425344494950428,0.0542566503605,0.0233766784348092,0.00778805065835599
0.0248354109149092,0.0518710593344681,0.0273196008073204,0.00838895155502271
0.0452934498151706,0.054947905425249,0.0255055819275624,0.0095151749058134
0.0290054293673558,0.0610392030338134,0.0182928842464129,0.00523626611865404
0.0286043842537212,0.0555940524617205,0.0175739279050575,0.0076273853432926
0.0317662601217962,0.0526941953041221,0.0230627110160357,0.00671805961594328
0.0326467884101038,0.0573379826881233,0.0171561086406256,0.00403716754036372
0.0429148303805885,0.0556897479139066,0.015569267639747,0.00671004309493127
0.0501005148296601,0.0554996418656865,0.0197776484390926,0.00420031579834868
0.0449123364950616,0.0591726533818896,0.0168745775778903,0.00406963246798173
0.0467007200320383,0.05207466377641,0.0160384341768694,0.00739206998784639
0.0351658585890557,0.0510402248777985,0.0151078638805698,0.00454112547547669
0.0444763284578471,0.070348425767907,0.0195402078321706,0.00631313904367906
0.0414227238053709,0.0460117988229149,0.015607373596594,0.00397060030615386
0.0454371718323069,0.0672923286973932,0.0198872736925009,0.00457817662996002
0.0409556357768037,0.0442481354692179,0.0175303547181623,0.00450116351592907
0.0364797082885441,0.0478280934658286,0.0177000132409807,0.00556247555123732
0.0455703521997195,0.0491045173116317,0.0161669817683922,0.00421482357100574
0.0413492265622179,0.0589464095743652,0.0176780078686718,0.0040509392597365
0.0376616536603521,0.0570721076057835,0.0162649752611181,0.00429365365801543
0.0336088464335532,0.0489150026935878,0.0126796261568737,0.00398213517758273
0.0365339175277678,0.0380271332769859,0.0132616360425388,0.00461279813636522
0.0309415800354297,0.0474024101126804,0.0127188052475527,0.00354035010821491
0.0396103489467434,0.0434948133420177,0.0135820504937686,0.00395416457898974
0.0359772509848804,0.0503092262660537,0.0157342010784441,0.00326935241118403
0.0374446720117516,0.051297403362683,0.0139717854311473,0.00361687645082318
0.0369380403390853,0.0467061271280692,0.0192756856529239,0.00441417400316569
0.0369827435821127,0.0482373639118737,0.0151930707047277,0.00332021912591907
0.0412391481349177,0.0502335354402961,0.0161194737398549,0.00413058418999933
0.0338741470718088,0.0655968073360331,0.0168823991014269,0.00447685966195608
0.0338997458585731,0.0436734210297053,0.0156744810749962,0.0037399899817337
0.0301146280374387,0.0445056402730929,0.014930555188226,0.00333412969229052
0.0358412807606522,0.048955755458836,0.0160486969137984,0.0036232696742128
0.0321342836231239,0.0422606648585551,0.0171941630792385,0.0035843394267216
0.0417349221948662,0.0484338180318135,0.014683902446359,0.00337580360127178
0.0418100314792071,0.0379746606914536,0.0150499731704066,0.0033985675279698
0.032324856985382,0.0533408767409632,0.0158560026622062,0.00368865249110149
0.0372894961430368,0.0540435084575739,0.0166546003145793,0.00371885264341545
0.0202847453452576,0.0205058385382698,0.0179803831740897,0.00601448619379492
0.0251081272435857,0.0206059414085796,0.0204268176153826,0.00485118687807984
0.0249813471974135,0.0201015251067531,0.0176742235851786,0.00651018771867574
0.0250296489142817,0.018542205002863,0.0217727031175801,0.00769082687297589
0.0230989208819481,0.0197204814254117,0.0219832791261403,0.00628076413688498
0.0201200315643686,0.0228369732164471,0.0232869490716085,0.00715346940866617
0.024930279727608,0.0226587950576521,0.0205376565784069,0.00698674382530333
0.0207387708064907,0.0237433239275627,0.0189748346051032,0.00495254861896852
0.02201700114154,0.0223581337464567,0.0162190331809826,0.00461810654923225
0.0203081186686001,0.021142752297298,0.0183328179816795,0.004925619198
0.0238534539639975,0.0192232347307933,0.0214630188634861,0.00475589618163419
0.0195780302199814,0.0133111788714176,0.0131697477267279,0.00290753476855519
0.0245564412015556,0.021495568383731,0.0166822312720291,0.00397500240125166
0.0291914846913962,0.0154423098575819,0.0198639881440584,0.00485768694483955
0.0328198993064391,0.0165512171864183,0.0203109904169857,0.00387630076706147
0.0258404241446286,0.0160143709465017,0.0199281486361751,0.00305612790783688
0.0237582222926456,0.0162111108919936,0.0200676413368885,0.00378957559010805
0.0276193548246612,0.0144340549887284,0.0192547741230702,0.00299029108946823
0.0369462592110216,0.0182647899543465,0.0259406893315269,0.00383323133740183
0.025149458405847,0.0168118642829226,0.0190881024973061,0.00273101669017233
0.0334498451251261,0.0164216035953497,0.0201936699973015,0.0025910594589719
0.0320945155497691,0.0172485000715651,0.0260603342161557,0.00306726595911329
0.0292776921011852,0.0195234017774648,0.0233522510617995,0.00358573840761858
0.0390848779966299,0.0141799649942742,0.0216697256396973,0.00292525726254759
0.0396786348250635,0.0159332623667607,0.0269589071222756,0.00316706850960368
0.0373720771408553,0.0173990887414802,0.0303018212328725,0.00284353560332096
0.0483135665258316,0.0227629604719945,0.0406756375114611,0.00273560729888638
0.0462877587173455,0.0188449468106813,0.0396493877003047,0.00383644924509933
0.0569109923183565,0.0205792677936052,0.0293159447062548,0.00271425858184818
0.0505767320266045,0.0176870265195741,0.0297031872453996,0.00333365626230645
0.047363509766509,0.0210338199742046,0.032223994411135,0.00322692606573551
0.0430670580936504,0.0191495766203552,0.026998666335343,0.00370172281848574
0.0500064517270481,0.0157378171452822,0.0290649243581961,0.00285144176080593
0.0544858232790954,0.0215774505861035,0.0342699020558511,0.00239485798211327
0.042770918659743,0.0166369929456613,0.0295602548960793,0.00262863845497309
0.0557933077586626,0.0241611485993633,0.0295177645293863,0.00299175644858727
0.0538941246529656,0.017987695438736,0.0322416049131062,0.00277526795844416
0.0456664581740692,0.0217751653857022,0.0294463207176257,0.00359678531924432
0.0483009154215501,0.0259228887305401,0.0312014369017541,0.00346011909868312
0.062402350740511,0.0247626886120288,0.0289190093200812,0.00437410025938798
0.0515114608863786,0.0267722088017196,0.0363550116756349,0.00419330882506213
0.0567246962517711,0.0296587505351661,0.0309237734677847,0.0046435018469155
0.0475928659874656,0.0363204076769659,0.0381215611233151,0.00491542837213946
0.0585162086878954,0.031520534581546,0.0330471601248978,0.00479337191255704
0.0718845967017123,0.0354101850629824,0.0383113390001619,0.0047423705168583
0.0513928495677858,0.0329078404858993,0.0413424154249966,0.00479102796563517
0.0629434592431551,0.0284132933244502,0.0357593296439661,0.00477039981212934
0.0538396432426344,0.0244464577683406,0.0284177355832517,0.00403589536735476
0.0487852434487437,0.0228495386299503,0.0317792173663615,0.00392143815183447
0.0484380295898222,0.0261222369272408,0.0288646200885825,0.00293839458122756
0.0487130095633812,0.0273054197054872,0.0370236674579671,0.00372815333400974
0.0473528544048597,0.0231120765259709,0.0268231078078334,0.00340367608437994
0.0431304563181886,0.022568498744466,0.0346104073580292,0.00343246305979529
0.0537881947582094,0.0199610740566913,0.0281715112044271,0.00348736351151987
0.044996206173685,0.0233758238075552,0.0320026809145856,0.0034427304630476
0.0549574266178408,0.025755654134522,0.0328908634056081,0.0037026127676104
0.0534876027776077,0.0258826309533253,0.0376979906493752,0.00377287893195874
0.0502566709934071,0.0227384454766531,0.0347887785974738,0.0031637967755032
0.049957505094033,0.0250752865142889,0.0262600172427929,0.00423716129701249
0.0431428978722721,0.0197663642726215,0.0308375584459202,0.00297099826201902
0.0136130907860748,0.02282587568292,0.0169404666415134,0.00606260122885264
0.0151183944388865,0.0247539832462515,0.0166723006423319,0.00751141912723259
0.0127960926627977,0.0222114771576903,0.01515585188047,0.00757068794511997
0.0121520612376363,0.0219313332635704,0.0160799339067505,0.0051021039910655
0.0149997975062262,0.0209308483218845,0.0177567958198744,0.00820211568464626
0.0153479367365811,0.0266551158868092,0.020882982486956,0.00846806324995577
0.0147012664116152,0.0243795373777409,0.017724623760977,0.00881798565571392
0.0118129672147698,0.0241863125689117,0.018551880691944,0.00720308632968064
0.0136794573073731,0.0251813156158919,0.0210786119326841,0.00644554434267004
0.0217082488736529,0.0264462630371836,0.0212136284168552,0.00771577216582791
0.0115432184019352,0.0183253228618248,0.0124666135687236,0.0065809697227723
0.0129636967816303,0.0195310176110703,0.012147708535431,0.00593846301314369
0.0165294022744052,0.0214260838579607,0.0165064047900838,0.00627705256040637
0.0265972102836115,0.0224793418425199,0.0127574189526846,0.00528291929674591
0.0296885893801754,0.0248919820149229,0.0205120611651203,0.00554817480689048
0.0246413495218341,0.0214494686576394,0.0151691992795252,0.00527382475872042
0.0252063404348012,0.0254685854884527,0.0172564747672523,0.00290941506066226
0.034896284350878,0.0267803177555465,0.0162775393038997,0.00633246162044546
0.0284056364214957,0.0278408668621933,0.0127478855740312,0.00341698776474752
0.0305059349501778,0.0270082469604988,0.014810337608026,0.0031689070799666
0.029947783439438,0.0309760688196712,0.0147345175798712,0.0033847111354113
0.0348049607710555,0.0296444453099768,0.0154714049421156,0.00380435616961416
0.0229833188134235,0.0326275416470167,0.0135316441679983,0.00323937513059809
0.0244976753737013,0.0260351151240945,0.0131925561694142,0.00290277705224784
0.0299043609294557,0.0345328038097351,0.0128055373434322,0.00344995945332926
0.0312993165240272,0.022994731453554,0.0121945288426088,0.0027618351368926
0.0239836065119653,0.0245187581410231,0.0140224119540186,0.00270923492838497
0.0246709119111162,0.020858474162644,0.0117082976958524,0.00291163608050339
0.0281090428826775,0.0265552670247763,0.0129960722440847,0.00331013380354545
0.029946150454856,0.0255103143043907,0.0116752973998328,0.00424766164668264
0.0278780276024602,0.0253322948708004,0.0112385876844834,0.00577222580520088
0.0259258742184206,0.0211630648618494,0.00916589459459888,0.00416724601232734
0.0292753978844088,0.0225497970349423,0.0110440988092235,0.00441658697268749
0.0353060691060685,0.0192772880104744,0.00995167565225292,0.00252810106654943
0.0226960000575248,0.0203993602180445,0.01038739566504,0.00459753574159816
0.0250631760871758,0.0177780556947418,0.00969967114918812,0.00451012375409736
0.0326100833479813,0.0233296550802857,0.00978923580323251,0.00228593480557062
0.0466416820900816,0.0173202933498358,0.00946766193393033,0.00265802487363246
0.0320363316336386,0.0269535501164256,0.0160414691492858,0.00340126065633451
0.0305037078907418,0.0369437310090555,0.014778557033791,0.00360868741089615
0.0284055444764446,0.0198601629299958,0.0121147709073874,0.00261041731674701
0.0334504036202466,0.0209720547389793,0.0115163489429919,0.00255644441063358
0.0292197801368332,0.0221238213596983,0.0112100363049109,0.00272703168983772
0.0243292622857652,0.0199355859977776,0.0112484032638731,0.00234142740315465
0.0297454267340624,0.0222813809696006,0.0131954964957558,0.0024535668709494
0.026266631724055,0.0214833751751842,0.0105273837298236,0.00192374790080385
0.0308970428866582,0.025070781717458,0.011213556450916,0.00256547186478692
0.0303667637860186,0.018696822585879,0.00995538573149219,0.0025598899271721
0.0326810313153771,0.0215065325177063,0.0101090530367281,0.00231101403609421
0.030872281248034,0.0210266247324341,0.00747814818912574,0.00245793388676942
0.0310228947526503,0.0218091448737356,0.0108984378006882,0.00204852755586703
0.027378663909584,0.0193724984936754,0.00945563478607031,0.00189051052975672
0.0294702309798758,0.0209320283304014,0.00864596755361466,0.00254537500245758
0.0281599941719675,0.0242572679825054,0.011539188642646,0.00281701796438717
0.0239774416292507,0.020316327346676,0.00956307850507222,0.00216826826445133
0.0262970577785472,0.0211673508112777,0.0104246809605972,0.00289240375794512
0.0282466613306242,0.0201172748037632,0.00972342494199826,0.00237075385705909
0.0279664603996641,0.018923837463697,0.0104553506720391,0.00257083932184624
0.0233470495775558,0.0157460062419658,0.0107388048161628,0.00195956399585536
0.0241957315559454,0.0183665406785648,0.0105014058157487,0.00241008093010701
0.0134142610994245,0.0357438756339374,0.0101344775670151,0.0045203880096784
0.0139143445769829,0.0353742741790363,0.00845665186981525,0.00525472577919829
0.0146138468701718,0.035449627687355,0.00946868309859599,0.00533984949612222
0.0126058351019335,0.0399940516439408,0.00674616533880633,0.00287688512259587
0.0141032604511721,0.0361811464639922,0.00807513770559397,0.00488973850269229
0.0166003331181103,0.0469032268147021,0.0112307291134974,0.00780351399653462
0.0193316263747231,0.0441117694791403,0.0110850290663369,0.00463112233392289
0.0121156394865876,0.0387758966063606,0.00790695155375118,0.00248705111304133
0.0142212299921287,0.0462707959174885,0.00813086591051081,0.00497411950790398
0.0152293872363712,0.0513626457699618,0.0115817459172808,0.00529019307090971
0.0122644328957239,0.0458173665971795,0.0108657524692779,0.00226106499054652
0.018781870687821,0.0423404058944161,0.0127262143672217,0.00512358432796851
0.0172311213593279,0.0454769162224225,0.0112148136208702,0.00668713353588369
0.0205410875348744,0.0655328767394965,0.0157977753552968,0.0051647718450865
0.0171922617169947,0.0454422748386921,0.015698682651707,0.00717556865752437
0.0186101935351601,0.0576750355318944,0.013983914881119,0.00719143715325055
0.0240086191132834,0.0560632653281627,0.0154523530692942,0.00506026518889622
0.0251381606951256,0.048835849785307,0.0185822890195843,0.00409501609360453
0.032876693879729,0.065947242197606,0.0182405662564664,0.00410284821457035
0.0288459497627581,0.0485642246254625,0.0179593901772863,0.00402588532057709
0.0416095887492133,0.0456412408540053,0.0231667396546581,0.00379926858544586
0.039413694244905,0.0530667625071745,0.0246604400179296,0.00608426210161818
0.031450403334898,0.038445598255907,0.0238477296598425,0.00428349076647336
0.0512455346996226,0.0511502090752259,0.0239965537522711,0.00360873164073005
0.0363224611908785,0.0446178123901072,0.0190934127368948,0.00228233868329034
0.0329755926995619,0.042788017242114,0.0215734809831551,0.0029935768812506
0.0418268666711869,0.0324354379548629,0.0235899123180703,0.00223561748101737
0.0453891727358056,0.0446384314306223,0.0228409984380359,0.00232460015397117
0.0372296981544052,0.0482668136204949,0.0174062940497118,0.00246796709373403
0.0357124092751187,0.0495617328962719,0.0231074550443568,0.00436104374256926
0.0430286124536057,0.0434192493608294,0.0232568472527965,0.00285466909028222
0.0341036996597606,0.0387194482616594,0.0238934896980704,0.00536451660244561
0.0319780146200085,0.0300696320790001,0.024329124049893,0.00459977372591042
0.0399834744726107,0.0469204981766924,0.0231565379517808,0.00220600124865188
0.0309655851565103,0.0433006700442817,0.0216008787181471,0.00209999942171266
0.0367109048452817,0.044660698129728,0.018004165365042,0.0025066540007156
0.0302029948110539,0.0394855045669549,0.0207632551278412,0.00207907254026358
0.0353420101633261,0.0367306080280412,0.0134536056165313,0.00180744180756906
0.032923628558898,0.0398395122522937,0.0248378829002244,0.00238359009135341
0.0346591250102014,0.0507724994019407,0.0181335681629496,0.00167764663081778
0.0314401680668727,0.0319253265102476,0.0211469786195004,0.00191024753849669
0.0312881996467821,0.0339578509870334,0.0173602327524457,0.00213197146704642
0.0264535543867243,0.0454644878717723,0.0174147533142212,0.00180203997658598
0.0318865252572587,0.0497443191621731,0.0183450918565685,0.00270502962130185
0.0344830968989175,0.0501150734863922,0.0170645407731552,0.00242537108923766
0.0368435331018261,0.0376486544249749,0.0167676653571242,0.00183696723459614
0.0291288557150976,0.037997026890198,0.0147287979409275,0.00183283314583629
0.0333838146875466,0.0429155975296747,0.0163489529897714,0.00162228540426301
0.0306189587278195,0.047688425870065,0.0224891421755433,0.00226186914444157
0.0399770380319638,0.0300881158511696,0.0169750189973412,0.0019783398114631
0.0415366791619196,0.0366677842892449,0.01690954299498,0.00255537517970008
0.0334795683885916,0.0498585558159124,0.0187766832431216,0.00204413616354845
0.0455553436653953,0.0284799028002652,0.0140783674317437,0.00211678255869034
0.0431166588333706,0.0430904343292808,0.0181567421507603,0.00259049591666648
0.0316706274029807,0.0412786423347514,0.0208039375423744,0.00183963397250692
0.0467808333671751,0.0364560630870039,0.0170254663581444,0.00220726075496236
0.0369874860182886,0.0367765249101857,0.015485002747431,0.00178767816380114
0.0351052890889768,0.0371716260911126,0.0128502933119746,0.0018993749434727
0.042633603913585,0.0436355337428354,0.0168126610605536,0.00254855675975924
0.0352248340055231,0.0332517459018514,0.0157590776220512,0.00178226945143419
0.00870176202183328,0.0232945262103816,0.0101261261874816,0.00603143828962681
0.00875008311238408,0.0211992351769622,0.00905846464400614,0.00515958061759182
0.00969256545801125,0.0163356861181504,0.00848798610764534,0.00624845361477407
0.0118168592259488,0.021471163282995,0.00997678197835138,0.00568148957137811
0.00914063415563597,0.0174144333986935,0.00836864452568556,0.00678470688974358
0.0102019219360093,0.0199032282064421,0.00959071391978266,0.00559753819400883
0.0087265198291744,0.0201166723750642,0.00795356846552709,0.00388949932036403
0.0625899159676471,0.0201469184889672,0.00927992831045714,0.00641552320004115
0.0356178375735411,0.0160848520252524,0.00841746079481076,0.00671963952229617
0.0153225665190894,0.0204737669639178,0.0105531642722682,0.00683275080624223
0.00920461431999214,0.0204831232073414,0.00736390636989632,0.00722389590749212
0.0110084978261958,0.0196346358090379,0.00585177648214151,0.00481356482640503
0.0103292402992382,0.0204833101475237,0.00787427351140926,0.0063429961034472
0.0106185479908461,0.0198950699567262,0.0162733648344064,0.00441940409241626
0.00935373743464466,0.0299785926224982,0.0118424647275844,0.00556921327108684
0.0126877872976796,0.0212698770858403,0.0106861711696139,0.00649361826459028
0.0109296573522681,0.0202543607144812,0.00984677997437891,0.00412185033967142
0.0148353417357165,0.02034915126627,0.00939493941695867,0.00441158696797208
0.0128959627896437,0.0258149670372547,0.0112340618529496,0.00583257638955783
0.0142022828617509,0.0275019950797772,0.0137045318073342,0.00530884549902079
0.0168349836241179,0.0273912363117502,0.0101918192053359,0.00389711026633908
0.017003768638943,0.0209815736513598,0.0135265864251829,0.00345941925528568
0.0235774029509308,0.037671359945967,0.0203286180625817,0.00250504039025702
0.0412131068518542,0.0363353511636141,0.0137481537598294,0.00309758326664408
0.045754783065166,0.0428125799852958,0.0150992578037647,0.0040000050074784
0.0306576663866735,0.0407984049232654,0.0158154408771859,0.00271916762935557
0.0419252009737114,0.0340490318609446,0.0144156871435882,0.00237237175757749
0.0225263913384816,0.0434241277860457,0.0140055618730874,0.00230464055665072
0.0195782535346352,0.0309643072959257,0.0164977271246884,0.00260587103409032
0.0203054957551302,0.047424998908086,0.0182178199004059,0.00246399575897435
0.0261981056136855,0.037651053161905,0.0156379294344223,0.0021865771866776
0.0313516296388657,0.0376342162078714,0.0165224492286368,0.00197512460256887
0.0261868872152448,0.0477642751926267,0.0213193687609353,0.0026648853615181
0.0276609555186198,0.041335008393107,0.0227092429133181,0.00275852783746199
0.0254477207937013,0.0356905083420664,0.017054102468448,0.00188310016565383
0.0220801803663866,0.0390953677139591,0.0159803790680287,0.00203291750441598
0.0249330994286616,0.0379964968312217,0.0147983091966594,0.0021306135632446
0.0221802835059409,0.03514441517315,0.0192328263108591,0.00207322872765051
0.0216341319611983,0.0410028915233154,0.020326147396127,0.002595569417593
0.0262362542214848,0.0359463551943074,0.0122934308461435,0.00221443993202557
0.0309963723860142,0.0519899922017027,0.0129055219296442,0.00233151066355181
0.0207170724361212,0.0389893279347552,0.0153910722077935,0.00219007026612336
0.0273362896715197,0.0348479738613456,0.01711431095687,0.00206858985030947
0.0286182356328868,0.0466372975266811,0.0191478113215004,0.0023379678604517
0.028322552752622,0.0338954373396095,0.0184710171107296,0.00192015660752156
0.0205050698097049,0.0351745280269341,0.0199056695355276,0.00211327907949117
0.0258335630514244,0.0351597609081889,0.013731681876935,0.00178815205678957
0.0262815892096285,0.0279248368201146,0.0128360755080937,0.00209613167438149
0.022939101334503,0.0350932928966075,0.0161257686786683,0.00217873325817503
0.0224430379719415,0.0383426273978594,0.0127005674665547,0.00243225091759291
0.0269247585505505,0.0438266519658263,0.0193286174869018,0.00225200552210653
0.0246019218589281,0.0364196619978001,0.0149081587476956,0.00202433407701902
0.0244917229924782,0.0437604409838916,0.0165562694413097,0.00182190402362444
0.0238655159855726,0.0315765340388047,0.0147665663932097,0.00167017851743026
0.0189682941850112,0.0279183196658528,0.0141513495280419,0.00201653673654433
0.0224863002337497,0.0376757048973282,0.0120881625577952,0.00189955788380042
0.0195926574190305,0.0334813260304028,0.012125068964475,0.00197784984461382
0.0197520872709603,0.0330485972038574,0.0141058363889506,0.00190057110660232
0.0310582184215435,0.0465848908457559,0.0128365171412859,0.0026159232601439
0.0208894766720774,0.0365375023350404,0.012037973675016,0.00202883047089971
0.0125515078319326,0.0276035660752653,0.0112352539444061,0.00283257788261189
0.0137887278844253,0.0356189025138284,0.0124812654405091,0.00262770981079528
0.012019577935327,0.0309819271948217,0.0105574186506361,0.00246443902139209
0.0151330770272248,0.0300480946608851,0.00878489787013184,0.0023977564879091
0.0148329741867392,0.0354504577577677,0.0123488570994356,0.00280759849394294
0.0132124306295847,0.0239976137627168,0.00936815325213012,0.00282659713612779
0.011663262848334,0.0291430798892119,0.00931115913082166,0.00335529996852043
0.00954797885311769,0.0323690733900813,0.00889710835188099,0.00211549864833193
0.0113431183686185,0.0220140221279309,0.00651977468225759,0.00205071906850498
0.0130520438700682,0.0314835728329886,0.00970662117278026,0.00182503095491075
0.011498078737665,0.0286121623672771,0.0089822984327178,0.00228965421756559
0.0113068810704253,0.0282474008188589,0.00899725061057008,0.00322621592364226
0.0127940080323765,0.0350864130659295,0.00885885529770201,0.00305466709549773
0.0114640248936301,0.0214026163267197,0.0080464604872573,0.00301530114644804
0.0128411221201487,0.0350220567981855,0.0106136722317031,0.00438864090976776
0.0116924425139503,0.0233167404213248,0.0114761635743157,0.00402256146444988
0.0146001355133099,0.0296500464913904,0.0132009125478833,0.00625825129384908
0.0168265967635252,0.0257269875674388,0.0164873266373327,0.00923452717827967
0.0141292995423044,0.0289522615158684,0.0137630165261774,0.0085481467220743
0.0152254057772151,0.0280955592782999,0.0137103484525875,0.0123216843634704
0.0172465803239589,0.0368046370197396,0.0155702165508438,0.00770178923153917
0.0122443382114211,0.032770356058412,0.0123443501560334,0.00844081843592329
0.0140683961116045,0.0363050498731245,0.0158267970573107,0.010776954239408
0.02024046566196,0.0381749232304024,0.0172941955170495,0.00575085979693764
0.0153083971034152,0.0273319462748176,0.011940588192272,0.00429697451424825
0.0222302360969856,0.0355844358611076,0.0170561718876296,0.00530474727524757
0.0209169085134465,0.0446960698847353,0.0138849166614686,0.00307771388032555
0.0267203601555716,0.0477382786216174,0.0157932093516619,0.00325866632005798
0.0231466515495674,0.0480776932773479,0.0166522085655915,0.00297232714165757
0.0242484261994709,0.0517518078357066,0.0190027239816591,0.00360827330457764
0.0185381353490409,0.0465762779886803,0.0153068700185467,0.00312196823688573
0.0201763218398571,0.0507448421093813,0.0136272691000372,0.00258457164717305
0.0188072363994814,0.0436215004948207,0.013559675689828,0.00256278569125487
0.0208032996476556,0.051477877296628,0.0127529937907142,0.00238708017184276
0.0198854998798443,0.0479706683361712,0.0123104426646421,0.00264214194299674
0.017256292194111,0.0385821825645372,0.0137136219173935,0.00257440095606838
0.023939598860378,0.0401615554406231,0.0184895220520173,0.00293019920405854
0.0187908138463168,0.0389603216076924,0.0157853676349911,0.00235638774733137
0.020693618867513,0.0435951158480524,0.0141690182701133,0.00286696487393725
0.0156173270021387,0.0343107080326207,0.0111568366731736,0.00275316711737831
0.0227069812875313,0.0444293785439989,0.0157285130183202,0.00251401044058292
0.0156984597584888,0.0405914226622173,0.0107194311954449,0.0020904415313076
0.0222473694969711,0.0462646138884501,0.0138787563217202,0.00257260023638057
0.0183100321980139,0.0366458616168952,0.010782889718839,0.00190370426043255
0.0179290448007862,0.0437624379169236,0.0131178754947569,0.00244242158913518
0.0189519899555343,0.0515694562649906,0.0136793045701262,0.00255195952869289
0.0184044510112646,0.0389015531274292,0.012121114118514,0.0023165941512171
0.0165303172619107,0.0380393205166985,0.0127002361301076,0.00247691984241341
0.0160165776220275,0.0421133371199728,0.0133886350721564,0.00327898261790175
0.024706635963289,0.0460934000068665,0.018100649076842,0.00247021073458373
0.022157659754599,0.042680077693653,0.011971160127354,0.00243527133933123
0.0168075130874299,0.0485513348135712,0.0109224936296663,0.00232312014937433
0.0183997575129583,0.0373451509320359,0.0113132652642424,0.00214293625049376
0.0209012238710108,0.0543374827986075,0.0169689841996997,0.00257695599174706
0.0215696326130456,0.0339687973430316,0.0131101630137282,0.00252943155881252
0.0172608150116239,0.0364521812961806,0.00917637845821215,0.00215530265086557
0.0195089902570063,0.0373081881003618,0.0127365016078756,0.00226894349096786
0.0195824701529751,0.0284762506693355,0.00875251668835227,0.00209883954152632
0.0154242222290487,0.0261629582137366,0.0101105109966899,0.00196965940016988
0.0199835968007415,0.0299612095117932,0.00982763372153839,0.00223288107177438
0.024285623268341,0.0188982461186347,0.0119653414924639,0.00515081514741234
0.0226179057558102,0.0204290980780745,0.0110965074074653,0.00442397301215308
0.0235675004792561,0.0195062585268678,0.0106594294698196,0.00458152325818793
0.0294092748489234,0.0205080731748401,0.011730152416055,0.00431391327763623
0.0193159704556102,0.0188520135777145,0.0116089511804982,0.00414462535417141
0.0211324903955207,0.0211302020431076,0.0136067646068416,0.00465506572775822
0.02274874654041,0.0206584015627147,0.0121451510934839,0.00457232628962102
0.0117190472779981,0.0213697233742996,0.0129656563845043,0.00697970337248089
0.0214217608186656,0.0252073435998495,0.0135814772366816,0.00964177544326785
0.0237576061275782,0.0175949077383452,0.0110563579464109,0.00516063610786283
0.0150237391586421,0.0225369051603649,0.0101768347945988,0.00832146172216792
0.0168339059202924,0.0212246306432071,0.0105661803028521,0.00817603482570611
0.014061103365208,0.0176779440288723,0.0116147237740651,0.00751556345690817
0.0172178757217563,0.0256031578087601,0.0142860988170863,0.00752281738146627
0.0168509096697416,0.0204791088793045,0.0123325542740432,0.00547157562350707
0.0199762533984073,0.0240986226422785,0.0148269128413231,0.00487281144010942
0.0199103710649602,0.0242372210096586,0.0115849231185663,0.00566675190065364
0.0235237414993401,0.0249600469301108,0.0174373419703766,0.0059980171668857
0.0337356060003546,0.0398922608696469,0.0172361865939669,0.00714545083922647
0.032202074955104,0.0317691413673854,0.0132541327351027,0.00506332943318608
0.0283534389758354,0.0279644191452343,0.0135000373761064,0.00488884080142793
0.0297698872670317,0.0299620424040079,0.0162059019749621,0.00516953743128035
0.055384805191429,0.0535258930074886,0.0216830608171598,0.00594087462704688
0.0408609711493735,0.0412734586084272,0.0192265079923368,0.00543288869941083
0.0456915176084494,0.0416345495202816,0.0203876289555206,0.00690200380912091
0.0463924921504453,0.0460640556072097,0.0167605738357928,0.00494889143692556
0.0445209385748524,0.0428060615399117,0.0188459128522298,0.00518540141037202
0.0315618946528605,0.0274527296646551,0.0180772548760509,0.0041328795812956
0.0404836475751499,0.0271074106503675,0.0154140129258944,0.00334617246742763
0.0270289153076538,0.0246208163352437,0.0116386510672255,0.0033117174437195
0.0417226002320273,0.0263270055822024,0.0147412737743308,0.00267182279353419
0.0355064456635184,0.0350284586107845,0.0113697596626301,0.00253507818390378
0.0391861212079415,0.0252285566040638,0.0168785921173763,0.00325720828214664
0.0283058396859847,0.0253177474150964,0.0153299360803047,0.00275378651681495
0.0345345362864339,0.025896712767634,0.0138486215556095,0.0030310229260691
0.0351466709548462,0.0268634526931378,0.0151167148430382,0.0035347364521534
0.0381359252379138,0.0308494291190996,0.0178243279663681,0.00251261578244918
0.0325496006240175,0.0419485392283038,0.0157296922571057,0.00326578212759639
0.0297543385414949,0.0216002990016497,0.0154123479046678,0.00230036048671826
0.0316869085590847,0.0353667258128094,0.0140706831562632,0.00277839283908564
0.0252944755346385,0.0242398928697256,0.0132950476399176,0.00235742452690143
0.0344907333287146,0.0225145461472538,0.0113748355314885,0.00320927205571311
0.0254639467826054,0.0254479361306183,0.0113252777923496,0.00276958455021821
0.0317716246761635,0.0209683879378339,0.0140966771518096,0.00311217555788123
0.0240955644557119,0.0248252982609789,0.0115485357499172,0.00260394012450206
0.029740432837567,0.0276339679468811,0.0132173915687065,0.00247180103152497
0.0368446106073269,0.0335388333777877,0.0166074018592569,0.00300226164776444
0.0282554802282416,0.0258363944800667,0.0115337486634986,0.00239265367520314
0.0345570798432456,0.0308053955831201,0.0116608765869877,0.00306020644839223
0.0336063240414756,0.0247132749938257,0.0142608978513404,0.00265945007566118
0.026280746726883,0.0189258737228533,0.0116915921150425,0.0028693292480755
0.0283525926767355,0.0280695265952644,0.0129237193084647,0.00293047477521711
0.0299840800703251,0.0230523130350933,0.0129529818210053,0.00295124849047201
0.0285665821513498,0.0207800559015658,0.0131835348911315,0.00265064945961994
0.0261071676740863,0.0251725795408295,0.0133330606578266,0.00274327978751556
0.029399333580272,0.0234026285831625,0.0127924494645552,0.00286222106445795
0.0235592745200193,0.0183401223885807,0.012097497364079,0.0028214715922952
0.0335773144265743,0.0192711247920022,0.0146774969580136,0.00300372911592217
0.0282506373742729,0.0180867475553478,0.0122056839927956,0.00280463086044248
0.0260616934124441,0.0223049648387369,0.0123516999847633,0.00288064443153752
0.0078496149769205,0.00828566706445305,0.00471828384494662,0.00194927503473677
0.00951466852251248,0.008159628805816,0.00443115042982415,0.00300794098675876
0.00704645848249708,0.00732973114671532,0.00589228647479968,0.00193038767394032
0.00837173564125554,0.0074167080183323,0.00484718528287642,0.00254691848922756
0.0071751713786265,0.00843057684970677,0.00454737495845932,0.00219544655132609
0.00773169509745801,0.00789084421321148,0.00564668225043235,0.00205083886009214
0.00740873747522291,0.00649466416646848,0.00546273539501207,0.00212670337011807
0.00742458411962919,0.00729783093612709,0.00577966017592449,0.00286157951840455
0.00865755034836531,0.00837118274145042,0.00535377851044466,0.00263099216450758
0.008528732667236,0.00860804263523088,0.00427283899279661,0.0028703111526671
0.00748516924515211,0.0075122493021764,0.0115520287042642,0.00365561047548662
0.00780027621164849,0.00871943334644988,0.00588284349574242,0.00520003598989453
0.00697012131965653,0.00878676385990005,0.00869570339983942,0.00235925834680915
0.00769646701255356,0.00917777714103246,0.00866442579146316,0.00359874984556929
0.00601978950345177,0.00974478570914189,0.00973550110292659,0.00375692004486203
0.0077608806874322,0.0083675587943047,0.0122001019139395,0.00537635196051204
0.00609653441508123,0.0106607183918785,0.0137121025360056,0.0062948697789211
0.00836130619175187,0.00893673629678408,0.0096690462012332,0.00459202141871046
0.00799016331503737,0.0132462456966541,0.00898619230659454,0.00555433711700521
0.00657647147169745,0.0102289879251954,0.00869666165230746,0.00444988349203097
0.006771143663132,0.0134690424902764,0.0130647936147783,0.00554623963567635
0.00885748640044923,0.0111475113524046,0.0189486002750387,0.00490530678474415
0.00890138496510061,0.0129875103388789,0.0119303542816584,0.00513868536489564
0.0151814889858143,0.0180334519364609,0.0125633322358091,0.00521335383445207
0.0208013626465403,0.0131234363485462,0.0106900424767703,0.00525774434641832
0.0197930167087138,0.011820496213782,0.00842733487704044,0.00512629633029374
0.0224429849558912,0.0166722717764863,0.0120538936596188,0.00577986948994383
0.00732830791622596,0.0182599420103591,0.0103255920267703,0.00457700116498605
0.0114806438574398,0.0807735845958409,0.0219395450295154,0.00404075681395969
0.0163146379015092,0.0457300596011914,0.021296397141544,0.00397836169774572
0.011467332937165,0.079510280176595,0.0185600599480381,0.0056101978908965
0.01059000805449,0.0618124802050686,0.0115153278084588,0.00435490861233829
0.010284243792894,0.0266106170046296,0.0139312862796547,0.00423108010007169
0.0109124581263485,0.0397118062810259,0.0100988668934374,0.00429006636605069
0.0121995702643523,0.0194080084391719,0.0118367299442396,0.00314237737428402
0.00935807973219552,0.0324419425241919,0.00795712412085408,0.004436930096606
0.0124264347252946,0.0342730510960391,0.014073661284808,0.00409773256085793
0.0116670585729648,0.0214755383585227,0.00942338689584338,0.00406708569396655
0.0121308728648077,0.0219094606360509,0.0142885819545772,0.00277173911825756
0.0154265287058765,0.0200821499590645,0.0147630261769067,0.0053045622554673
0.0140177053858247,0.0278646869470933,0.0117695382344627,0.00353358669008672
0.0114793922706014,0.0167795106644381,0.012207997889624,0.00277608917587455
0.0113465943351598,0.0189916978241097,0.00839888986175266,0.00261848685554814
0.0123465927306679,0.0184728565762564,0.0152921960801645,0.00303906028109846
0.0102086458835707,0.0168698128765146,0.0107067670392552,0.00272573687630658
0.0112135066395216,0.0162898662618623,0.0116235872993971,0.00252810150502851
0.0122206353511697,0.0163148434069556,0.00953082245562713,0.00195853920653877
0.0127946198201396,0.0162681500950375,0.00815402379328217,0.00210742578076076
0.0122538773060988,0.0189367877817824,0.0109908900389707,0.00200267372122705
0.012637640208658,0.0159155528049382,0.00866087045558291,0.00209291817186468
0.012020177395346,0.0169083328543346,0.010402458542419,0.00187266744623238
0.0133093102138396,0.0165569322180194,0.00811476755067147,0.00205835474900622
0.0126507948163183,0.0124933632800638,0.0110537972008409,0.00212496284820616
0.0115161265927516,0.0147970677300336,0.00690968500349654,0.00195247304109284
0.0105721740660965,0.0129137557012285,0.0082850615596395,0.0021321760005642
0.0108577197656852,0.0121312726578285,0.0089576073838619,0.00168663007084064
0.0116223380527918,0.0142359748039789,0.0100395810003975,0.0025587093050348
0.0117284889926821,0.0113852535706539,0.0132396766182618,0.00232824125269245
0.0115370214972279,0.0163853733828724,0.0105473932126825,0.00199803822089339
0.012025260129943,0.0111575881187107,0.00978492017772167,0.00231569874746024
0.034617742236278,0.0639319856751572,0.0166741071319259,0.00563501123224427
0.0380720227048342,0.0453924142927872,0.0151442488290334,0.00606911111783385
0.0388073129351547,0.0487356936568765,0.0147143566835753,0.00582521674669632
0.0402339331989202,0.0460054605762746,0.0140429758410327,0.00521733814565147
0.0388901883700351,0.0505398416715502,0.0172740338123927,0.00625633046558677
0.0384931344707696,0.0529517729609381,0.0179918535089651,0.0069960823593946
0.038355075657278,0.0669119710692706,0.0154330961969819,0.00512473805107351
0.0328018929543343,0.0478299984025253,0.0207718187790635,0.00586285713053389
0.0417415133692108,0.0486217168255999,0.0166005632263507,0.0105538725265598
0.0442148258239392,0.0376378014851299,0.0241944506677886,0.00788396969875472
0.0290436725808481,0.0570934195748783,0.0183351316877817,0.0121931612206139
0.0337756692009403,0.0531563676391519,0.0222676443350244,0.0110348952214878
0.0455814839903763,0.0532521742240459,0.0316097227929307,0.00757959226999504
0.0510903505819054,0.0549804579890645,0.0384575350907052,0.00999161646711476
0.0328559124063406,0.06321960550848,0.0323669518116835,0.00950580984731531
0.0455307548085048,0.0697676753547059,0.031125693212738,0.00971462835756137
0.0410332598502641,0.0637176028301461,0.0505603328799005,0.00950425179877509
0.0478616691318972,0.0588912376984875,0.0592506965154297,0.0114098182308668
0.116511044998438,0.0706878018989085,0.0529439189625167,0.0125320974547623
0.103137751894603,0.0507093263533958,0.0484035315240589,0.0111374822115309
0.0678239869862921,0.0769075791537988,0.0326708276250836,0.0142260173931445
0.235293914523094,0.0540885852398763,0.0464096467860618,0.0121387121722352
0.0997153710641032,0.0655188320198405,0.0562169951201203,0.0115543884408656
0.0561716312738812,0.0443909292804407,0.0562921764486065,0.0134103591322794
0.0546881628072898,0.0604146627386287,0.0385335437720827,0.0117198391934252
0.0533406325969643,0.0708165157199845,0.046311659938199,0.0133663446449724
0.044538080263334,0.067971569598107,0.0305022399943145,0.0108164179003301
0.0393203124007849,0.0658142715736579,0.0231001998422923,0.0121696833194793
0.0342840872973485,0.0778721219728054,0.0228351521782142,0.0107170515784975
0.042043434458098,0.0584793148179395,0.0322880734275872,0.0101254562779279
0.031021885577877,0.0627814739085239,0.040014032963265,0.00816021545243024
0.0429939951799953,0.0494991044501319,0.0278549145662035,0.0109292121397853
0.0374249549433206,0.0608746349205968,0.0215753796129046,0.00806332305996903
0.0418690588335646,0.0653735487626089,0.0208020734109264,0.00638967909774711
0.0362266575429574,0.0645061410639714,0.0265700386880983,0.00530851725920476
0.0324176645019323,0.0563705818844574,0.0246497488649692,0.00724912639452343
0.0337600017811613,0.0473721089915854,0.0287883760683265,0.00652986829133636
0.0399797069621863,0.0639874166907735,0.0275279160187343,0.0069324817877725
0.0423158378273959,0.0707451022008262,0.0242798528396369,0.0066722672657964
0.034412854008388,0.0420781809458218,0.0264259144308744,0.00613497802008534
0.0408370138945763,0.0625161782678661,0.0243289780132581,0.00860569134636122
0.0341658229586574,0.0697774996946871,0.031449623256076,0.00671343363567264
0.0463105688840211,0.0576719429859174,0.0239182118441296,0.00701054666030771
0.0391209200001523,0.0500791938967575,0.0275641531805117,0.00974472020918429
0.0521817178656918,0.0495649761348771,0.0281361282255704,0.0072427208606628
0.043487583605155,0.0682592506006552,0.0281320996759892,0.0071047645385999
0.0457528773439416,0.0602316005243002,0.0365114814493017,0.004812671631511
0.0544624128648269,0.067412888586025,0.0255525647612674,0.00839383493324793
0.0432390821526928,0.0716868932797353,0.0194179180375751,0.00648212748336561
0.0539705940901704,0.0452775011207775,0.0342033185975852,0.00744621469273725
0.0488533203027786,0.0555359333061281,0.0259924039300606,0.00954064000886738
0.0480792191869273,0.0596772431510837,0.0274486308528342,0.00583695323332391
0.0570338154861574,0.0601502033805105,0.017543656162194,0.00722066294140756
0.0496957478190945,0.064352878080784,0.0237566580185247,0.00639329423466238
0.0462058936865875,0.0651560601940004,0.018178058383184,0.00731594497835368
0.0479722806148493,0.0653678982481262,0.0176243726214801,0.00710134994318847
0.0484447161030021,0.0656014837250031,0.0192455122530959,0.00827691810200859
0.0571488045172675,0.0663455925081585,0.0333459882021346,0.00706850124789268
0.0596154135255314,0.0842751587209786,0.0235939327015558,0.00634780182845474
0.0538591897534706,0.0623705289510972,0.0259525559690171,0.00980226705450207
0.0119984273036928,0.0145615122094634,0.00766552953773487,0.00214147177222909
0.0137776838917155,0.0140710205491162,0.00848355238615279,0.00244033906317146
0.0125778681795166,0.0161050915123671,0.00687306510284816,0.00204024154329751
0.0120298514328614,0.0175759210598135,0.00802290100742781,0.00190034702967418
0.0150369366119675,0.0157397530050646,0.00786508215764415,0.00252857210888754
0.0121576650110784,0.013890621344033,0.00648848062071028,0.00303209668828046
0.0169621255502949,0.0170508692288261,0.00916883401007164,0.00248121837346109
0.0151804707473921,0.0135188564000919,0.0120138242512305,0.00240699320988988
0.0121865742742783,0.0142470190011806,0.010418951408193,0.00312722672502455
0.0121561902844399,0.0158946095983702,0.00656443734638939,0.00293463770099802
0.0104891388713254,0.0153090574254478,0.00741279950297495,0.00374699132046779
0.011443189674128,0.0201611449225656,0.00957541288081906,0.00553656916996575
0.0120534933760958,0.0222640525970666,0.0162212227502093,0.00631733309304467
0.0238997912400414,0.0386834178761486,0.0232694253888229,0.00585994021945994
0.0169354425200213,0.0246746168316512,0.0142791674223629,0.00523895058793868
0.0192981909434789,0.0444243785814035,0.0113195768263951,0.00433894001207684
0.0172490468309404,0.0349749620657228,0.0175362769741098,0.00477729689551127
0.0168614149712725,0.0246076718658227,0.0113516445042266,0.0038458587186353
0.0213212524394214,0.0218371196503757,0.0105601200288955,0.00418735586450549
0.0199392616811624,0.0199379988414482,0.0148291175482943,0.00408838707495574
0.0160219734835193,0.020794969116576,0.010459765268854,0.00361938210711236
0.0158353864128132,0.0201034690808196,0.0101340746483369,0.0039224322566015
0.0160765381658578,0.0224206988091266,0.00831319751576044,0.00334960692178323
0.0133154516524391,0.0201221653754453,0.00986154026906882,0.00370629813594521
0.0177242255748889,0.018234728278553,0.0126507691652405,0.00427402182476642
0.0211938384698837,0.0189994939652398,0.0133200572483526,0.00274748917750753
0.0164966723474225,0.0157354466772128,0.00890641792041771,0.00291176150854911
0.0181997055340726,0.0186131122329391,0.00704096233501673,0.00372313035877121
0.0198521008114378,0.0206259848403553,0.00890791330202604,0.00386451786060317
0.0193680893429824,0.0190589843906402,0.00885513099832807,0.00339196953738561
0.0161620377913001,0.0205768717304887,0.00960030715336224,0.00379661532048639
0.0196662840782944,0.0162179918401049,0.00768961656710903,0.00303123609361017
0.0185708675066047,0.0191879465895116,0.00985825905238139,0.00297157597168486
0.016153690905866,0.0162027526345937,0.00703287677059775,0.00347082125213772
0.0153724112289004,0.0216949636333053,0.00748743462722463,0.00293315758261977
0.0151342946641901,0.0151062897838354,0.0081078797122323,0.00314339742036683
0.0171815923649696,0.0171612579953052,0.00995880765571687,0.00288346326556483
0.0172409297683019,0.0169026969274456,0.00667984493080276,0.00282285268981649
0.0195379230720066,0.0220545304133923,0.00855004936114868,0.00313026272137047
0.0165059821247195,0.0210324183127004,0.00787202074052562,0.00265926459426844
0.0182277670585838,0.02083319601003,0.00710560306650541,0.00264821044637279
0.0192656566260204,0.0177747265390438,0.00560154148546779,0.00268637693736214
0.0172539439912558,0.0187285776555701,0.00697465778192527,0.00284491533641237
0.0146781301448582,0.017255175208988,0.00825090064947041,0.00283144931274538
0.0145714755301858,0.0199454188798235,0.0079645393054702,0.00253789129258606
0.0132508645237501,0.0158036906087683,0.00664382419512121,0.00265146571569853
0.0166685207323395,0.0242705838309436,0.00880545394020943,0.00286854078637005
0.0172611214564147,0.0166630751689092,0.00742843051439998,0.00267739147950045
0.016195997190153,0.0245710089116324,0.00897891514233396,0.00249135214215268
0.0140064381136777,0.0185420238282103,0.00733173614613518,0.00257532246529773
0.0162118803080683,0.0165661494328757,0.00833911480354045,0.00269347710209589
0.0181412980568271,0.0189469277524719,0.00721256319010468,0.00306723832508164
0.016041277843709,0.0178358659700026,0.00812169380046874,0.00341440997105684
0.0182062549102328,0.0183556621326844,0.00759456032301151,0.0025296647425942
0.0152472551508433,0.0178799087043101,0.00692367275071896,0.00280459012528412
0.016296776535139,0.0193859970107995,0.00611329145009542,0.00263074155620913
0.0198050077508279,0.0168004337512932,0.00698567728576321,0.00173713240367506
0.0133088915373786,0.0210141651971985,0.00861515830824503,0.0029758547175439
0.0163076816988262,0.0185043047189666,0.00762626697708464,0.00354028127771089
0.0184713200694814,0.0188553041723533,0.00747286118124829,0.00265821364025887
0.0277593605442036,0.0265045422204946,0.0111374790183223,0.00991586412086906
0.0408246980672364,0.0313383039416357,0.0129252170033588,0.00744794098820208
0.0357417740294168,0.0276797746935414,0.0109870304296279,0.00963066140552974
0.0405477218286917,0.0221227123286949,0.0101303796968791,0.00948617387981122
0.038127728404982,0.0225345141778676,0.0100692367758676,0.00830419296073772
0.0402250899149819,0.021013847444144,0.0102858771840669,0.00670761165556669
0.030660481515085,0.0230377936409533,0.010262032039676,0.00931955570168755
0.0330704806757872,0.0304373822243528,0.0157390823255399,0.00660491091908795
0.0353661744674687,0.0270127882999617,0.0115570992783731,0.00725134326487617
0.0295559665116865,0.0231258839180954,0.0117866411956537,0.0102504837806143
0.0301331112761929,0.0211462177874354,0.0122062333548719,0.00837243401244145
0.033293578348603,0.0191859158322083,0.0132305894728981,0.00920266092841554
0.0260964192664587,0.0267197509908386,0.0116214033920054,0.00490677117971368
0.0302190407757461,0.0267055310207242,0.0188496671823046,0.00628150676999195
0.0241108900843973,0.0206393028046453,0.0121501539175648,0.00490684831900389
0.0326746278189769,0.0294434047044014,0.0155621405395126,0.00478547774148825
0.019835514698568,0.0259410564129394,0.0125126915256867,0.00473331282817204
0.0338614770872644,0.0244522168065895,0.01048897990704,0.00367888132458008
0.0275322700359134,0.0297759254276857,0.0187808801386725,0.00332716174535018
0.0270431310232171,0.030074843967921,0.0183150162415271,0.00412479053414042
0.0268420497932801,0.0251580235985563,0.0131029049878577,0.00367357112946627
0.0214906199828317,0.0352469450194715,0.0139128903365208,0.00401253717637026
0.0260389972509613,0.0339199196195124,0.0157517291286463,0.0037236499189098
0.0228107230160965,0.0373009319411418,0.0184871995270876,0.00480867045636992
0.0241990512460448,0.0529110345460473,0.0204185230403175,0.00412322919251286
0.0303048316423356,0.0501629035963047,0.0227401511806758,0.00322337942559848
0.0271360475290773,0.0485342071814183,0.0284150873720906,0.00410969021888174
0.0250384705009068,0.0387888523171547,0.0281834464275853,0.00564480536028867
0.0247621140324697,0.0330707446404232,0.021713800983643,0.00510435775602327
0.023236359438263,0.0344984992388615,0.0190953250234852,0.005292374242267
0.0238828384612472,0.0336553487110166,0.0138263958241951,0.00367031694191074
0.0238165405824148,0.0400135403360099,0.0112260428155864,0.00583494467927181
0.0248563832757763,0.0479837415464908,0.0141386696124144,0.00746280554028866
0.0394761991416195,0.0550785889504354,0.0132205781017172,0.0146279253395109
0.0225942083266157,0.0521452108658748,0.0131575591710177,0.0123511729652678
0.0296804276816607,0.0573843588389262,0.0143130483997809,0.00742376667014095
0.030079036706203,0.0472742072795746,0.0150772569611126,0.00725790653059904
0.0301075177107333,0.0421191206530061,0.00930194823384961,0.00615183062985511
0.0268562136026838,0.0434943203746864,0.00935598510116255,0.00434780229872309
0.0279307075132319,0.0459650922160445,0.00890875533020509,0.00278912385352701
0.0221595296204139,0.0394383073954366,0.0089390675686044,0.00372734928580734
0.0275160246111085,0.0352525613471879,0.0102452041451457,0.00349469859887046
0.0225957608099246,0.0372234675862319,0.00732609880105299,0.00260191448819926
0.0223918292879513,0.0387086799227817,0.00800930906966999,0.00232601829148139
0.0249421865146302,0.0538917313404994,0.00938313622077518,0.002709659390807
0.0224148289842011,0.0382961472903567,0.00732636009865854,0.0019321994904674
0.0223608229811806,0.0318923956067849,0.00563357877283611,0.0018430831926621
0.0303238118150389,0.0359041388505937,0.0075682086560689,0.00223459698118534
0.0262133800162423,0.0253432696696609,0.00813792602065893,0.00221244623230835
0.0242726172512362,0.0381618941416284,0.00664780937774675,0.00203355813656859
0.0204460044655177,0.0295241428419883,0.0054501136823829,0.00191071915345522
0.0216690505631295,0.0464528650808199,0.0074511263558269,0.00213268430060676
0.0191116930615342,0.0411746071148275,0.00812928660669669,0.00212463178300408
0.0308670350427895,0.0442498861426103,0.00682067584229943,0.00214542847713972
0.024211945378383,0.0370243899432279,0.00724556544174785,0.00210839115015683
0.0199804234313263,0.0273341517594865,0.00580554101570602,0.00213913823150145
0.0225291184637371,0.0290683953556226,0.00676984782198298,0.00197534872261762
0.0235223294229533,0.0323639740528102,0.00536526801878133,0.00180758229539161
0.0234267534243329,0.0347522440116971,0.00625861502388532,0.00227369233603425
0.0239411347869203,0.0331464411202095,0.00715488745416215,0.00203004191018244
0.0281627046694289,0.0443784884454621,0.0185169453178816,0.0139580363816648
0.0204108002568149,0.0419980349429924,0.0216640742541194,0.00979798056626116
0.0163511631695112,0.0364507453526029,0.0221899363053489,0.0101983466560668
0.0209698028242895,0.0376477981867136,0.0220296227004252,0.0100340131069877
0.0275096598693929,0.05810771323282,0.0359934678514005,0.00805362382169166
0.0155570034715875,0.0442345258200369,0.02380544514792,0.00861094547447315
0.0202139935063296,0.043604998797012,0.0292296583125053,0.0165173941282111
0.0202546351358728,0.0334441134036155,0.0201996494222869,0.013864139656203
0.016233898300515,0.0324178074496424,0.0289850289934564,0.0111029663809344
0.0122696731331832,0.0220210877408828,0.0250745465710794,0.0115085140965687
0.0271540901036979,0.0470132093780407,0.0304694000183388,0.00992383305952492
0.0212836413934334,0.0380805198992789,0.0272430302240127,0.0180546185814066
0.0329139665908726,0.066854621666116,0.0401162435110381,0.0160406745989847
0.0253997390607443,0.0278952871018676,0.0214334842848567,0.0152363624301259
0.0289114168883797,0.044765283427196,0.0258875580430414,0.0194447724665111
0.0403031703337301,0.0410950405649384,0.0297128197739144,0.016849468551927
0.0392193615539206,0.0357689240800853,0.0252792237325652,0.0198188752608217
0.0212793087915975,0.0438980800783478,0.0254266280798643,0.0136788072251524
0.0293916044277191,0.0319711490957039,0.0194925589676335,0.0104782198090129
0.027746170699772,0.0340768812149918,0.0288381858074892,0.0172520290827745
0.0409028492100161,0.0391185655792412,0.0293952901212003,0.0147547247037304
0.0365639324633632,0.0410587246710426,0.0313056199172323,0.020511193036568
0.0463602113006078,0.04229459143559,0.0355937577323355,0.0242230727975499
0.0368935386426599,0.043211183599167,0.0388844540446775,0.017022796344284
0.029464350098021,0.0349868329715452,0.0326592574337902,0.0149117320484854
0.0436947151031884,0.0461213811218343,0.0391511651080254,0.0147776597696658
0.0485246280786166,0.063559202578106,0.0476650040455496,0.0129589112606794
0.0458500104486026,0.0465120305819623,0.0354149538422321,0.0159848540722635
0.0621116677005653,0.0647589460861166,0.048041744630544,0.0113677909376668
0.0528169625218081,0.0493517140677488,0.0437141043477431,0.014495109553461
0.0322477626668882,0.0326416681160018,0.0314684241019828,0.0183329175389908
0.0589861214386739,0.0617427388332833,0.03920750269475,0.0205404186063014
0.0598416415378868,0.0577264513958469,0.0382935684896038,0.0212537055744098
0.0381715414775599,0.0439200495175773,0.0355410568148191,0.0156745572407759
0.0532269192310824,0.0508716853125934,0.0413180827986054,0.01799118175631
0.0369569139017992,0.0328671618652984,0.0248701221752281,0.013834495884804
0.034899007817584,0.0350268186256529,0.0269723348370012,0.0121660532159054
0.0404819531377859,0.0521820854288409,0.0221433823032254,0.0192255354718335
0.036171570029509,0.0391727782829751,0.0275327763990048,0.0145086133285466
0.03495323518604,0.0440387645610207,0.0248254299218513,0.0188092441535467
0.0618573390516215,0.0591078549795045,0.0446668276234217,0.0170780463646914
0.0341918153503605,0.046192352670199,0.0326395094153089,0.0112962341165091
0.0505083113840635,0.0452416119503368,0.0366601397961468,0.0267390630055933
0.0430838795701833,0.041572743478707,0.0301360327236937,0.0138626686578099
0.0413976799788803,0.0328125578583668,0.0233956857593077,0.0150765348987626
0.047165616626172,0.0406435405842143,0.0338384411864981,0.0203242555307899
0.0345035151940942,0.040374036656164,0.0253760741811753,0.017182597812391
0.0260611464888442,0.0213261862605518,0.0238503337357004,0.0176426255018508
0.0330454198136838,0.0351369894302177,0.0351622715300238,0.0149824217972804
0.0308723128296674,0.0466286835226551,0.0457624215979496,0.0202552452090766
0.0337595811446893,0.037231539731967,0.0245512209147964,0.0105794853654805
0.0345600888807832,0.0328345062103742,0.0347656136659876,0.015164956971657
0.0312714126758322,0.0362593540243218,0.0350429460476378,0.0187651476532502
0.034315358360081,0.0431054835584512,0.0294212291063057,0.0160129872469776
0.0441128905720277,0.038738297337223,0.0341397998735397,0.0189246407644331
0.0325214321372456,0.0370763498168046,0.0268894894915072,0.0156711664129332
0.0564346275063445,0.0417428122690377,0.0346799791996085,0.0278899739692176
0.0355239857766653,0.0461852253246721,0.0330657637947142,0.0164668523565181
0.0334033468684656,0.0345312149215442,0.032121606958803,0.0177923600744374
0.0310602318812156,0.0482018007605231,0.0255985677403469,0.0194974081781088
0.0163941218660301,0.0258849440675691,0.00963494681518552,0.0125244524403072
0.018876867551572,0.023797443453181,0.0106196485103166,0.0134006892360379
0.0152622375642033,0.0261091519938268,0.00803311103665686,0.0147992118058538
0.0208514097649877,0.025950989357297,0.00921006770024235,0.0129840308510086
0.016522902008182,0.0279433746139177,0.00962552301860107,0.0145968636306747
0.0170419649506776,0.0287708197012162,0.00796983653899217,0.0132789097819347
0.0170282995475298,0.0233524939324684,0.00767071442790295,0.0108170385394651
0.0185101617388558,0.0215497491250054,0.00991353839235031,0.0179807224759932
0.0196641431769827,0.020380220427641,0.00751932707279526,0.0094972782218856
0.0145500970977952,0.0318641815991853,0.011581022854678,0.0119014047024953
0.0179039023319814,0.0243098672442167,0.0122101571695885,0.0148625740859568
0.0171651934843266,0.035610612852957,0.0126208677151617,0.0193573141198966
0.0191269071828748,0.0269223523909901,0.0149088324377217,0.0221369090580166
0.0258221109073827,0.0263919226906178,0.0179388096589414,0.0601967713637576
0.0324254577284241,0.0323707751839403,0.025694069805306,0.0150147945912411
0.111511289722551,0.0470834711526052,0.0450265505758237,0.0131627425331581
0.302701942739674,0.0364444045930715,0.0204696199609936,0.0118745467990812
0.172836835175647,0.0564906257551073,0.023275452766439,0.0223182395469834
0.119169468604123,0.0394024712664216,0.0186878584469869,0.0183556817646984
0.0625406411392656,0.0493198407925284,0.0208020323853749,0.0165971212291535
0.075309163763744,0.0428306776213572,0.0172265398773199,0.0154457884099075
0.0627826812459916,0.0450463216015452,0.0113884174908146,0.0116366652743289
0.0397886089517339,0.0343979055437675,0.0147310996813949,0.0166996324042385
0.037000817845837,0.0509617274835267,0.0131481981392492,0.0177415321953011
0.0299907892992461,0.0337177783496526,0.0137329092532163,0.015275889038951
0.0297556373695695,0.0380216987595975,0.0122516081140322,0.0139606094660802
0.0296778189689625,0.0257097128694413,0.00917607450419751,0.012123824235344
0.0268639871097792,0.0351921304029175,0.0110470162843241,0.0142666857733718
0.0251289736331946,0.0310817222740474,0.0101978652664625,0.0129867171297593
0.0277891735297952,0.0372770081557374,0.0110725777827677,0.0196506545448639
0.0222286162712522,0.0386477496943302,0.00943211213283899,0.00883983274527304
0.0287006026218051,0.0317220292548327,0.00965807706992756,0.0142920570904823
0.0268796517721783,0.0289075199870417,0.00937581315026736,0.0138939821131399
0.0306883017268479,0.0310542536602002,0.00952341349838859,0.0136631091554404
0.0292416503177723,0.0399551585139136,0.010668081987232,0.0142021550228109
0.0241680771429769,0.0263729912283988,0.00895661991376125,0.0212981395299119
0.0305042092255399,0.0370070234296756,0.0092383954923696,0.0138059335337381
0.0272250031633924,0.0288665992173586,0.00950160721881681,0.0122601265361697
0.0234164084438087,0.0306594712844959,0.0107545871384708,0.0190470175310123
0.0294134621330206,0.0452243384557358,0.01278228825569,0.0116170716805851
0.0259235108639272,0.0511850378461455,0.0162275743658651,0.0124007685385238
0.0301441083891747,0.0445556404239576,0.0116806965099331,0.0165277058303212
0.0269798754383562,0.0464224147289803,0.0105689959841159,0.0153302068178039
0.032801700062905,0.0442286494645809,0.00981279665859852,0.0117414028515028
0.0296443905164407,0.0434037001150583,0.0105181372628717,0.012698329190872
0.0316740366991621,0.0511321365247266,0.0109858066107843,0.0120472640877964
0.0229077038610496,0.0402472448252781,0.0105483056948329,0.0155343949123264
0.0283694374652237,0.0384547764833172,0.0108314010285169,0.0119634917546518
0.0264304273042369,0.0420197885461042,0.0124932430714283,0.014262931316379
0.0258629770999683,0.0406035758698837,0.012043140835685,0.0138054957482998
0.0265360620865713,0.0430137937353408,0.0114621339923578,0.0169322202426848
0.0221736697078022,0.0330538618695194,0.0121107867029545,0.0121006549683012
0.0237011706637248,0.032311220085658,0.0107263853434785,0.010397998373437
0.0227016578612378,0.0323324434268404,0.0106052630250555,0.0148020888429187
0.0244542791426076,0.0325677311770725,0.0101497982502376,0.0155141714410171
0.0259017764464953,0.0351344398795713,0.00999130232848646,0.0112415684965927
0.0292583631889709,0.0322622205446527,0.0101031675391487,0.00864615802955839
0.0283978212201189,0.0317048866258096,0.0117935534246702,0.011588930601497
0.0260464160533959,0.03544819052196,0.0117837724171079,0.01242664004932
0.0259186021086675,0.033589524245957,0.00900863596939674,0.0100953595332984
0.0329024728277742,0.0448204425231498,0.0129139900434326,0.00810611092275469
0.0287394571903893,0.0374564701047808,0.0117693029382937,0.00611441953364525
0.0181731068286789,0.0384449737750412,0.012520131825741,0.00547040690463863
0.0206521908704378,0.0381947651627023,0.012429644380599,0.0081848474353939
0.0296669095521738,0.0417652710352028,0.0134113071604046,0.00644239649894818
0.0262711626380188,0.0387037376008854,0.0114176978482531,0.00703976702319563
0.0253530055608144,0.0414041268167447,0.0128267605731641,0.00817541585787025
0.0190166426686666,0.0375887794926108,0.0136890063507248,0.00589028594078478
0.0152373744017202,0.0337300788728254,0.0172718138770075,0.00741987226629123
0.0240039294156364,0.0444275538840259,0.0133779608826836,0.00808023175550272
0.022544916565995,0.0410183648529188,0.0131540216230888,0.00861830128778518
0.0298707461926102,0.039628960136105,0.0203629807886295,0.00970160788599637
0.0231185125492034,0.0441100261254499,0.0147831745045095,0.00811707475380118
0.0271021138768589,0.0446993348341527,0.0141566843103448,0.010158048550643
0.0261736416262791,0.0405536906422178,0.0147886206318541,0.00968064219263684
0.0303103341992666,0.034933628481371,0.0141974732273824,0.0112628044337662
0.0402812932062681,0.0375258390329128,0.0130661333714131,0.0123977733590697
0.0415102499863967,0.0405116119282195,0.0164887952467813,0.0114557052984421
0.0318267278211698,0.032975327667642,0.0145577117271464,0.0117091040527895
0.0363833391536719,0.0424580194060101,0.0135338220537607,0.0143936868724572
0.0456683475924911,0.0437641343782715,0.0117343410493274,0.0124033209615693
0.0482210046703502,0.0449358123808922,0.0159800190403289,0.0188630274663943
0.0441788898863228,0.0444539586645525,0.0144297626544809,0.015567315098601
0.0427130051855225,0.0394652828522966,0.0148644717434633,0.0116782854799835
0.0359572688729139,0.0345894684314476,0.0120832542135707,0.0143470005523673
0.0377440043023738,0.0366965042454932,0.013675573869051,0.00967890930479025
0.0379985336176666,0.0407211998380926,0.0102085575130062,0.0149405944669106
0.0291876355167333,0.0275299439057695,0.0117083197770949,0.0109508215746883
0.0374901712870227,0.0384499641099878,0.0143070638358246,0.0105790809208819
0.0352256757678361,0.0301899560261085,0.0119529413056182,0.0155964970489866
0.0449891026278993,0.0410797332485553,0.0164915527703033,0.00972914213852413
0.0366462309815411,0.0334691396221332,0.0132509676438416,0.0155292433346574
0.0394211649741133,0.043272163907532,0.0129407224132962,0.0108441948290692
0.0345015036398593,0.0379768701312313,0.0147669935170008,0.0101865707054064
0.0398301786413344,0.0472021798857943,0.0130322003714321,0.0136131799822057
0.0391053518026209,0.0575744016062085,0.0120374602652073,0.0132043712102861
0.0385027919951538,0.0354449432284579,0.0151617012972135,0.00952978786482748
0.0410651658263944,0.0432034154905356,0.0173637567279039,0.0153099177746311
0.0360384765385283,0.0385962553091836,0.0122342978505951,0.0114891765844011
0.0387782496737289,0.0381021946790672,0.0133010111784641,0.0114919239588592
0.0360912061296897,0.0352862770024499,0.0131197424272108,0.0103485651429045
0.0386074673907755,0.0499693746350467,0.0129011829591055,0.0164647988798793
0.0385262119257431,0.0460582922492363,0.0147200152498203,0.0123427819073046
0.0356080896682257,0.0382592769313285,0.0138123680660389,0.00888783076306741
0.0360525380284373,0.0413192890139906,0.0160234720785749,0.0133087516136989
0.0354046494060731,0.0394366652729191,0.011091357445095,0.0111891749724206
0.0419276318520962,0.0429533841857895,0.0142336858367561,0.0147180531077099
0.0439937268652034,0.0375140920541994,0.0129880852177042,0.0118130772850912
0.0364813607564104,0.0432376490003959,0.0124647898349115,0.0122792436252184
0.0462601629651262,0.054947415087085,0.0185007623029038,0.0138201712104655
0.0426093950897221,0.052640356948062,0.0155021514774718,0.0142508980242256
0.0427654015004676,0.0354107776518124,0.0123863527930839,0.0129521596703937
0.0314040592866519,0.0364387980629507,0.0128235894030135,0.0115084602592459
0.0357476356567757,0.0414406004910785,0.0153867778790405,0.0159714071657504
0.0389344688232494,0.0375036605188069,0.0145672258042764,0.0130461610003185
0.0336650457811725,0.0481242167265325,0.0171087777518706,0.017899591468882
0.0481224608582552,0.0475969399208726,0.0140188653067563,0.0130846320911765
0.0506690171486518,0.0607003465666296,0.0127562400482955,0.0168482897326292
0.0472401573752976,0.0523694135316583,0.0159199107779952,0.0126055410020151
0.0407277334021238,0.0422230555188629,0.015856387075928,0.0155874800524327
0.0260560248203248,0.0495988721644262,0.0147828763252652,0.0128176238662616
0.0226303778224213,0.0439253924168617,0.0116955336102204,0.0134155195675366
0.0231722471263266,0.0411643722329717,0.0120467202375009,0.00921857745171202
0.0217559528780515,0.0377466293666299,0.0128732587875746,0.0105206296127366
0.0233104572002369,0.0494904492580358,0.0147641664503857,0.0119894983153499
0.0272293840861933,0.0461690469881183,0.0128076604041366,0.0101278709475638
0.0195310021080004,0.0526956733831336,0.0122532083135313,0.0110673951500348
0.0243797133763984,0.0483639315254246,0.0121639607157071,0.0100423770617736
0.0218134956946032,0.0518499424980193,0.0139434804735947,0.0078978489642555
0.0222717141366271,0.0538967152874806,0.0133390545663241,0.0106087770208818
0.0178819742236774,0.0383722104419672,0.0157249560302585,0.015657733322398
0.0221088603673216,0.0464888012327094,0.0208717763629016,0.0108106956155191
0.0271244872343569,0.0495622273130403,0.0161970231814158,0.0148909118455045
0.0206052938955466,0.0472226647851381,0.0181018505262777,0.0170828974047657
0.0219227801028691,0.0502048943091994,0.0159612774599988,0.0135457026197518
0.0229227934943074,0.0499525361164648,0.0144854942608132,0.011445476963085
0.0308067051552767,0.0477230141609226,0.0161290477245098,0.0114643142035381
0.0339774797116449,0.0515431675160215,0.0179822290563596,0.00947285020816733
0.0341003292167909,0.0469037916450946,0.0157136062749344,0.0138283191606306
0.0339081382646959,0.0556595289463897,0.0143768253297673,0.00754017205151831
0.0405478917582412,0.0656908450606826,0.0166615497861948,0.00731551698898956
0.047646716107887,0.0692533317502489,0.0127659498529139,0.0077507335481658
0.0422151963156993,0.0697046709357098,0.0163916757994955,0.00732810597417917
0.0402218204429564,0.0632529694335577,0.0175835048991319,0.00653381368952032
0.0739875549874448,0.0735304538229342,0.013600440001128,0.00772692717133782
0.0743884421479853,0.0667547842759398,0.0236024554036587,0.00773247210262372
0.0432327329999346,0.053515150583185,0.0213179343377007,0.00580398280017223
0.0430541737759932,0.0894469911952035,0.0176814583459912,0.00717271590228832
0.0397903490380229,0.0807693111337087,0.0194170129678582,0.00629083278970729
0.039657932508496,0.0651570181770316,0.0189648853440597,0.00719380558056564
0.0392286979569974,0.0950002215164961,0.0175250476536338,0.00845538680787565
0.0449564147344346,0.0902494339254792,0.0184501927506407,0.00778736405484672
0.0469244900934016,0.0816816536586299,0.0148843718184851,0.00802927555107917
0.0449842592026086,0.0944943790403398,0.0177530140078545,0.00860193564508117
0.0443653954732749,0.0930696751224767,0.0176692966504629,0.00467271985945236
0.0439806950399285,0.0663879271252501,0.0158853587355439,0.00654461622021655
0.0399042949891068,0.0750446606748389,0.013175617564136,0.00436897960063212
0.0351495591374593,0.0681244369386254,0.0141788584094027,0.00422235866522719
0.0289616177407864,0.0711215418732815,0.0139130792285607,0.00545309057111486
0.0331273814433946,0.0832113807943509,0.0147060121429444,0.00342105480090626
0.0263675666529854,0.0598379033413252,0.0163601360542163,0.00394252727153111
0.0309621538463736,0.0671287136070883,0.0169284900565727,0.00381375046626096
0.0339360748328409,0.0607566093110126,0.0190695879313213,0.00483529076494218
0.0357840273648864,0.0852223759905984,0.0164331981855697,0.00340452092671812
0.0336727469481061,0.0631904561976543,0.0137503826266507,0.00453288121687391
0.0321570298875304,0.0732870407540648,0.0178531214260708,0.00384669341118263
0.0292147714296982,0.0677470787159365,0.0153772377733797,0.00366822468371332
0.0331639273203429,0.0575209187356503,0.0120472386293718,0.00474206894377091
0.0263789704929023,0.0601807890384321,0.0110560607067101,0.0028223241583267
0.0291532991017224,0.0694149385773905,0.0135056645913413,0.0047875357275597
0.032548510818936,0.0678569950149055,0.0160511891380682,0.00283639253571744
0.0298955702481971,0.0573874031630198,0.01638041367014,0.0030432622445406
0.0290956105143852,0.0687138135849416,0.012591217481344,0.00271272895062235
0.0317664323959827,0.0717161326462866,0.013472395446211,0.00308452615746829
0.0285687029837459,0.0517122303852629,0.0122437938389464,0.00297413997242481
0.0328439872263289,0.0741037579406272,0.013666035836058,0.00267343386832153
0.0309396192138009,0.0554609980880526,0.0120395115777973,0.00343269752103959
0.0243315022305192,0.0678464482624206,0.0164163961829993,0.00346929592336405
0.0231540483659994,0.0480158833462018,0.0123414419983309,0.00325880911281724
0.0291788065503203,0.0554229499260995,0.0168506438117078,0.00327393820719626
0.0231780711577475,0.0396630095949674,0.0108643204148497,0.00519433118611301
0.0260865262749127,0.0374379293847929,0.0132774011661562,0.00588545809995306
0.0280623717672602,0.0328637545577413,0.0126839472920694,0.00707357240926466
0.0196935246712156,0.0334882264033445,0.0108021756522474,0.00565173135125439
0.0292919022364301,0.0307339386912163,0.0143320692653182,0.00719429153634474
0.0187634708160573,0.0334304042596722,0.0122411873176424,0.00655626488044541
0.0275587733459513,0.0345435107108225,0.0172739055208487,0.0094566943045918
0.0357093640563525,0.0381171726976385,0.0212905184455982,0.0166355366470643
0.0346029848562593,0.0437882186730097,0.0193492972333466,0.0120302902563046
0.0377650713164402,0.0426591469912195,0.022358350306183,0.0126271371038263
0.0400202170992808,0.0372171383136635,0.0264970841780752,0.0116428266369611
0.0417984430594029,0.0387820791580911,0.0279795407727934,0.0143236263588853
0.0515639634430353,0.0338225700365519,0.0191075212184644,0.0157113903628369
0.0346470640048182,0.0382972830544495,0.0259861660964564,0.0151176433632061
0.0361081110606434,0.0361795001438609,0.0144102847983858,0.0128439207873354
0.0415290365083561,0.0329654388856816,0.0185687106383005,0.00920613471661639
0.0468612726709848,0.0461832017597745,0.0412155973714653,0.00773471380615777
0.0631818392092821,0.0381851074320014,0.0338444134329642,0.00716967996303215
0.0582977418910609,0.0431881862098822,0.0419553191355127,0.00762105429530632
0.0567279605104418,0.0334223259445407,0.0434074090695627,0.00947267517785196
0.0576004236642852,0.036194142111398,0.035326809806445,0.00725343786893533
0.0608240357160067,0.0384188810109673,0.0401576697791841,0.00684325016210026
0.0668007879404106,0.0387162085495972,0.0283558862796474,0.0056046136836056
0.0505917763731709,0.0379620701076919,0.0264445215117721,0.00723020779396831
0.0697922163238208,0.0321512579011496,0.0346821797139811,0.00745488714298179
0.0734606520545913,0.0286846434254508,0.0277964540959576,0.00732875088893677
0.0529473598099395,0.0335441553473398,0.0334016946504209,0.00494775425390325
0.05340101394773,0.0255658314499422,0.0317574572784938,0.00285187867553608
0.0665994019281082,0.0376636173146151,0.0215554351129796,0.00545935910948173
0.0533763933305789,0.0309453640387208,0.0258400503730501,0.0044579412416889
0.0451662702791863,0.0309798703454342,0.0338576271574174,0.00397281333852129
0.0587271458025696,0.0241637778647888,0.0397255282640524,0.00238417387461833
0.0529346083605009,0.0288559749799179,0.0266362399987551,0.00337008955252026
0.0452086416514179,0.0317770815915733,0.0316967176482977,0.00334213889689988
0.0453415175403397,0.028249578962576,0.020297807903683,0.00298620233274104
0.0483771074356477,0.0310317102749146,0.0180757978762832,0.00273635659556992
0.0436175257203769,0.0257806975146753,0.023292724193289,0.00361255748586079
0.0540821491384953,0.0331538369086152,0.0260859098869955,0.00263879324366356
0.0596518720743337,0.0372947816225862,0.0272459898881698,0.00265050602549126
0.0484639927715942,0.0382035894196268,0.0313748983863054,0.00341737256156358
0.0576133577971369,0.0330136012433068,0.0252726218017311,0.00285450783989788
0.0528964716236604,0.0363995091491792,0.0273833783823666,0.0028838201123899
0.0613589254980346,0.0277036936772733,0.0293632340084189,0.00295419582462257
0.0495790639338765,0.0357227392093818,0.0212717388269066,0.00347774842304495
0.0594494467510256,0.0299714138919135,0.0251524802235041,0.00246961153087951
0.0458822560338626,0.0331274798242937,0.0243545429553931,0.00306280785158634
0.0582941050126971,0.0277201292510751,0.0192163759130671,0.00327381657193427
0.0537693339880976,0.0345789194049565,0.0214206030113377,0.0032240175136225
0.0489145722835324,0.0355784676682615,0.0208247309320034,0.00541191842784257
0.0610287552216614,0.0282270472732328,0.0186379048700215,0.00329268096532238
0.0573363034741923,0.0309273119540661,0.0265827929499698,0.00274589733850897
0.0520659775893149,0.0337734071268997,0.0387086972515543,0.00496476964227022
0.0500512902402579,0.0366006831628414,0.0227041131733363,0.00395061754583037
0.0490645693320813,0.0307242546876226,0.0272964160865645,0.00337465216294623
0.046936393458058,0.0296234182199888,0.0209671784033469,0.0054455255124864
0.0547302204287513,0.0312797863856964,0.0245160026807927,0.00460599299467535
0.0413252490882917,0.0322455685854636,0.0254182663704649,0.00284071987251451
0.0450016019582751,0.0243570187014094,0.0270318496344855,0.00212224091152101
0.0380563414287653,0.0290935982539885,0.0240576768987423,0.00256436397652224
0.0468690903548349,0.0270718296049381,0.0205545190721335,0.00274200884424036
0.0204012535393952,0.0346825950724539,0.0170973409305393,0.00493519606669337
0.0171556964484424,0.0322315881083645,0.0143391838076343,0.00369974477787274
0.0192022707091588,0.0344049777665279,0.0175779634024301,0.00387108824620346
0.0173820256888982,0.0304996534440191,0.0188939851265614,0.00324802010182697
0.0178433305682341,0.0357904759684157,0.0146605613433405,0.00303241242407319
0.0142391284937912,0.0329131567588311,0.013514434350906,0.00374276241961202
0.0229204622554449,0.03317457860032,0.0166221259944035,0.00248896382184308
0.0257874577963799,0.0366222481216398,0.026851584061291,0.00424841202929336
0.0338546817400456,0.0546480160832971,0.0293393845264175,0.00449381927278332
0.0313509855812899,0.0293370636111684,0.027934676843898,0.00345434923646201
0.0349444835153665,0.030221946142281,0.0260083221433243,0.00291074456996333
0.0332843438753839,0.0269550974391613,0.0261902748168053,0.00320087546594131
0.0393659906403307,0.0419344734815531,0.0614595724336646,0.00239948736775379
0.0839854060132313,0.0460288101355804,0.0942672006279334,0.00461677743116593
0.0898688562793004,0.0482061702465796,0.087726042960091,0.00278377205605715
0.100121543035576,0.0356992205173244,0.0336507749330851,0.00266522601205027
0.0744426849861887,0.031263806865924,0.0432500080320079,0.00271127909110385
0.0482599890319737,0.0360327356292584,0.0335526727470888,0.00215983905480692
0.0440859958670337,0.0312176745419839,0.0165697789060939,0.00307342765595606
0.042718128504607,0.0365349666420846,0.0377505832299751,0.00206781347458682
0.0475793079474618,0.0339689832041046,0.0271319814544569,0.00213452140366903
0.049328513308562,0.0432680589561178,0.0627229747981326,0.00180632665213942
0.0293975238830164,0.0498418848404297,0.0447851088514203,0.00189685620312266
0.0307108988338053,0.0434391402263902,0.0659122088735182,0.00189460739479437
0.0471781195640676,0.0505582907924593,0.0613340348445475,0.00202649268945903
0.0323355694495113,0.0492143013997708,0.0255073103920509,0.00176933142927047
0.0522944057876303,0.0678594933501815,0.0246896439968027,0.00353443585444772
0.0663698081058402,0.0643775270942982,0.0414955962161645,0.00728056607655699
0.0511359288302193,0.0500731534637903,0.0519588975751982,0.00975840956245027
0.056321238987715,0.0525063172189422,0.0488753855605751,0.0123367864440827
0.0355473295978582,0.0357578478054942,0.0249433674517929,0.00456058443481751
0.0475347732259969,0.0466510840341423,0.0341641063859817,0.0041427693974963
0.0456806408891333,0.0444004265921644,0.0317208330871898,0.00445028060653719
0.0516724767265923,0.046334462998624,0.0375869155539039,0.0020141077916822
0.0454468623539023,0.0491389772978309,0.0348681827576661,0.00241108777390476
0.045878601401451,0.0500683035687098,0.0353688581482987,0.00310472317039677
0.0428419537444162,0.0563534492261113,0.0291271587075678,0.00280830397226261
0.0639927441616316,0.0608664693506911,0.0248163693792363,0.00459619811774816
0.0457417905364578,0.0516527743729631,0.0211200018158362,0.00316585809314425
0.0379470312927621,0.0330698336933599,0.01814323760866,0.00232140189628197
0.0295943020642384,0.0313445758826242,0.016455679035242,0.00180239713577692
0.0239189994289376,0.0400547773422148,0.020766088512739,0.00172295784743098
0.0247391939042537,0.035592575159327,0.0136643969029262,0.00186128167166703
0.0195802755343969,0.029950768645396,0.0163903580950996,0.00172936916309006
0.0263779333137056,0.0447295524435205,0.0140326183866999,0.00162886546700527
0.0271634060838478,0.0406557922627455,0.01657704664933,0.00151730373743931
0.0274007275310139,0.0324528542134259,0.0131987499167291,0.00161231960343734
0.0171877739121453,0.0268230973727342,0.0143907999605947,0.00152929393473174
0.0215292657557153,0.034889190593836,0.0098642546550975,0.00134036769460966
0.0180846717802295,0.0253643178933373,0.0132654856895347,0.00166860725555976
0.0239670430726999,0.032582145049059,0.0157624191739185,0.00157383972768402
0.0301561901248892,0.0321003024258082,0.0121290877914354,0.00186619329950295
0.020434109222645,0.0368948238527336,0.0129020406473181,0.00120259842835971
0.0195542193581362,0.0336571282872011,0.0151680807427662,0.0015688122936069
0.018244358713467,0.0282121103105246,0.0133703250382904,0.00135488815483875
0.029066027060582,0.0372447589240719,0.0167813596439208,0.00208654019309949
0.0244431977046838,0.0272291278783988,0.0124824812982533,0.00124821856045164
0.0299644552392624,0.0363416670498481,0.0117650703163688,0.00157182454004612
0.0238983072835587,0.0328618547540199,0.0150734807040453,0.00139968588405341
0.021633609826296,0.0299403817247063,0.0130077647836508,0.00145995392344983
0.0433523946958224,0.0761619228620122,0.0204462461226683,0.00681438712326044
0.0389212478684663,0.0654868586074669,0.016989057395445,0.00843735711599761
0.0443368782535284,0.0606133333476965,0.015481717526595,0.00692261005921043
0.0459486584342414,0.0684600341525176,0.0200828307099449,0.00754742599814716
0.0362224997019473,0.0765074191953065,0.0177397614989867,0.00717530700855238
0.0496396272640824,0.0555978403914198,0.0202236151250972,0.00652314498363488
0.0362622433874359,0.0566025220715191,0.0185675239487409,0.00821109483032673
0.04749145615193,0.0720207426797461,0.0190946560985734,0.00540977739779428
0.04312230663153,0.0612326545308351,0.0155394530076045,0.00546286483683723
0.0396262828213217,0.0560806196579923,0.013862003453963,0.00596658627516369
0.0346507359087071,0.0520251460152799,0.0182184000311942,0.0159266157984375
0.0497500374441501,0.0647587174709132,0.0166612214198062,0.0137210949363356
0.0506938669027219,0.0512568953016536,0.0174460787764739,0.00811603187732779
0.0483582867644905,0.0500901404804499,0.025652335616558,0.00754387494443304
0.0599876364049627,0.0685525903275165,0.0227666094854963,0.0065879944584867
0.0609895236846965,0.0590387668874662,0.0262771341979789,0.00402079432623434
0.0790062094985377,0.0544687961595559,0.063628469365907,0.00433190287725146
0.0564232128566812,0.0581523973102038,0.0317292071258704,0.00332360389487219
0.0709733698338096,0.0600390039336249,0.0197699486685378,0.00318849062627302
0.062280315710349,0.0640343425028264,0.02390404094684,0.00273769046008107
0.0662093857404897,0.0521241897129943,0.0175694138278917,0.00472204260116556
0.0729203614161615,0.0707254390666682,0.030844787557243,0.00686405102112331
0.0906293269305072,0.0725490268924887,0.0390556367772315,0.005198172151927
0.0710184821676985,0.07220734819721,0.0292445921361871,0.00281135343659163
0.0669368939478027,0.0838238983953474,0.0338691485315,0.00302123221901224
0.0721804620587227,0.0528279821327803,0.0259442761083998,0.00237529360859934
0.0776591887719319,0.079650946623996,0.0370579154625066,0.00319954519100359
0.0723094388220494,0.0500224637000528,0.0277213209196624,0.00250797700572938
0.0733731077533107,0.0550799308739664,0.0219816238299032,0.00185214183715683
0.061898196058917,0.0575787978986547,0.0234338425164065,0.00221781009239167
0.0655217318001641,0.0632705371168625,0.0236025161441158,0.00177456226550993
0.0648829039557211,0.0561080721070766,0.027208772949616,0.00187060632543849
0.0575945373003026,0.0539240083014799,0.019821756881412,0.00223769968547348
0.0558462753692426,0.0553026163761131,0.0163680410264365,0.00199717625963301
0.0544887551552116,0.0704018104899529,0.0284445557007366,0.00193218252913563
0.0472107616202945,0.0513566890753588,0.0237157671099471,0.00208977422828702
0.0591148138587707,0.047147244848419,0.0257355742062062,0.00198508989387345
0.0485600275523128,0.0451901954955358,0.0207140706171444,0.00207439119642801
0.0595355977703407,0.0508954496699309,0.0219016884829222,0.00276953213362978
0.0628811355939937,0.0584378888126762,0.020102434794518,0.00198821005924816
0.0438870972551631,0.0361424690809148,0.0132350802548777,0.00189432143953499
0.0582515355931265,0.0510027837544578,0.0168641923649027,0.00246569901362554
0.0567275728955358,0.0469300307236903,0.0167814866190639,0.00227130163660563
0.0619836090437969,0.05478962947092,0.020452760215313,0.00203270501582639
0.0593607232330575,0.0559519279872746,0.0233645202944042,0.00181468567595492
0.0500918034251859,0.0566275381137201,0.0179753498020762,0.00182147789852041
0.050455141456917,0.0460976861273477,0.0169234353620913,0.00183859979289612
0.0670900246618471,0.0533926085327417,0.0175424958300658,0.00204021310615872
0.0640422522638062,0.0523897408686954,0.017499452561117,0.00214417096744324
0.0624032780043441,0.0575586580426117,0.0251044242608796,0.00214031715544415
0.0609831568217714,0.0521855424827346,0.0152211323601596,0.00228500305282501
0.0597368421810555,0.0471451599873673,0.0134166228960557,0.00195582877643566
0.0626597966174003,0.0495372618232671,0.0197540849152632,0.00188367818098175
0.0588417211912105,0.0461299282797109,0.0171038362376313,0.00207132715165389
0.0640061964091398,0.0425236265716012,0.0177554183307544,0.00194003106087092
0.057229305964328,0.0498109728079358,0.0217481004713355,0.00222091691529654
0.0746016835026306,0.0544082971912657,0.0198451897104334,0.00153456307374768
0.0566005208222817,0.0504119594323672,0.0146399812279189,0.00197158043743814
0.0562349325911839,0.0577330693544763,0.0175356521833633,0.00188844392856938
0.0593760070598445,0.0513025302191293,0.0165618678331452,0.00164071015807289
0.0209334669584994,0.0190125920490912,0.0166501774946312,0.00486937992527641
0.0203112434554596,0.019113410765757,0.0130282326967954,0.00432871398800536
0.0206125686554736,0.0217848239026689,0.0174030250616004,0.00535929479427352
0.0214368964491658,0.0200426204259486,0.0112881921002546,0.0042952560621226
0.0198489219831296,0.0189553316170511,0.0152705770863151,0.00493049605348353
0.0265359746393421,0.0165936833448996,0.0119936277744723,0.00489675389817452
0.0244434309783482,0.0165554191081403,0.0130517999321031,0.00563327807993732
0.0249797427417191,0.0193497533655541,0.0118896185138565,0.00405517717996247
0.0197702065014477,0.0166000262659816,0.0141527734168504,0.0052909331317461
0.0254795808599596,0.0153354139325007,0.0135808166559212,0.00557581921128358
0.0241380937020699,0.0203613833309878,0.011266338568639,0.00439245670266243
0.0241506185907259,0.0180230770538368,0.013930818943322,0.0039483676032161
0.0140574122278283,0.0158472514217885,0.0112166335065794,0.00613502035294943
0.019527020103007,0.0226920941519475,0.0157393597688046,0.00704667664885458
0.0166041347229111,0.0227885769790175,0.022217718942291,0.00806379937309415
0.0195290987681783,0.045366824918994,0.0323234617369152,0.0105790835771629
0.0212587242538326,0.0331382165344809,0.0202159874798206,0.0113949410284469
0.0228584389777029,0.03369417211061,0.025196685131242,0.00701357571604087
0.0252860340452846,0.038770968972328,0.0236638475135569,0.00671195914852562
0.0217474869947636,0.0367877696337061,0.0228304686549463,0.0090108443483676
0.0300822025809126,0.0296360448646916,0.0219124416381309,0.00769254422547119
0.0208378711177951,0.0295238285087625,0.0207693839292141,0.00761034098388398
0.0351795945605209,0.034964110572978,0.0255035444164916,0.00860322522419256
0.0415298679728868,0.0462758753219586,0.0335647855207,0.00751648109729367
0.0361177915777426,0.041169644841165,0.0294954506397389,0.0164408784464931
0.0455688330606476,0.0322463210174514,0.0237503511332391,0.0186751764790688
0.0395656879470002,0.0575243926362276,0.0289224087391315,0.0143385746864992
0.0366324112742315,0.0377116958682191,0.0197452217578029,0.00942218222775381
0.0463709835972217,0.0428194905822916,0.0305892191008396,0.0180367333020315
0.0405190327045979,0.0355128861933288,0.0503279384990249,0.0130360732657856
0.0312433639067517,0.0340404722185562,0.0440639578703488,0.0105999170064594
0.040520820470014,0.0450921075654999,0.0270318867976224,0.0122931618658723
0.0349798861013477,0.0528968546725643,0.0252954301395451,0.0119525643433949
0.0368241024944264,0.0403725217133253,0.0205996796954011,0.0105181602916595
0.0271017005063629,0.0355960586834083,0.01750851872193,0.00815364023202233
0.0377160125504713,0.0299617250304705,0.0217645740124384,0.00983097457877602
0.0406807527104553,0.0337345495670763,0.0149454057208514,0.00561269391334735
0.0276944235386553,0.0309888048941129,0.0244586520515637,0.00521756762700643
0.024429154420277,0.0279076604225271,0.0186903930002477,0.00482134309540862
0.0218727460338394,0.0222957098742597,0.014945857460014,0.00754694097848074
0.0239719555606201,0.0286411994171632,0.0141524864073558,0.00677326683822314
0.0282351789539305,0.0299208169643262,0.0208007585187439,0.0044044422142626
0.0248167935805764,0.0272146141949821,0.0166505453491774,0.00399426862802128
0.0295604513072415,0.0230231440927736,0.0155772466282618,0.00571382707980576
0.0276086047474616,0.0203409175025149,0.0179879825729647,0.0035885412212666
0.0186469791713792,0.0253106849767177,0.0169355595511724,0.00303737457776608
0.0287933156390762,0.0272915050569136,0.0195079379044281,0.00320171087058867
0.0246780207700338,0.0277049734025924,0.0157970301333752,0.00435322347428537
0.0376583175340003,0.0332280038987223,0.0150788313055794,0.00505065926284062
0.0257539064079628,0.0265364150439768,0.0153163048272842,0.00322090666449213
0.0304966471200692,0.0211979073109804,0.0175942981742592,0.00460858932508672
0.0262893296656484,0.026577573635509,0.0165492444798473,0.00447802098473052
0.0236785774407077,0.030794408381595,0.0192184628769252,0.00464327851269434
0.0221917446825186,0.0245771118804612,0.0148927504744517,0.00432625967568416
0.0284319871677281,0.0269156237340709,0.0208927610376885,0.00268020284482557
0.0295576590477079,0.028749060160616,0.0227072324503858,0.00519436847857159
0.0347131536089702,0.0308204642002893,0.0186943599485356,0.00291855997971536
0.0317427347537435,0.0308997082646852,0.0198257708582374,0.0060657768603838
0.0282328428723319,0.0300325774146177,0.0149019938454456,0.00301645730128011
0.0305201436369218,0.0308000073911217,0.0156785611284044,0.0034366220849299
