0.0291290801738242,0.039989780501408,0.0112255555349972,0.00597503068844266
0.0245812110281424,0.0413770190539777,0.0128897252661857,0.0053156188802757
0.0303849191632036,0.0329176142457208,0.0100622975992641,0.0057346002331262
0.0222879312552651,0.0389326386989548,0.0122047969689949,0.00583828397544391
0.0277679507911961,0.0314587671211374,0.0107715839779677,0.00548622448566306
0.0302353345528391,0.0272581005445749,0.0102268769882018,0.00480425795885066
0.0306986535640263,0.0328276788202505,0.0132836894207367,0.00623720783192647
0.0250220394156792,0.0354473202974754,0.0108352411778301,0.0073247102536749
0.0267354999406689,0.0333874235734643,0.00995333212090701,0.00763732604942287
0.0283781603513088,0.0275854235380006,0.0109725569761794,0.00778725671546309
0.0348782763024692,0.0197103558079341,0.0118972517131868,0.00483018889068459
0.0298045136757716,0.0370575553978412,0.0143194228725886,0.00503897315386883
0.0214464214170362,0.0293043280685394,0.0113693702949526,0.00716531532989629
0.0236715742944528,0.0358524081884912,0.0130363471704705,0.00702730888212996
0.0279497729189495,0.030975097824937,0.0103234846324921,0.00641508580840441
0.0337986552575823,0.0420273702916653,0.0125582655572386,0.0072341584558059
0.0281612973470498,0.0321470211658455,0.0144241044996569,0.00466739776000149
0.0299415889016388,0.0232349259469281,0.0100729947045405,0.00714227087223798
0.0218248671980172,0.0259184345111654,0.00780513615718963,0.00589103320098307
0.0210152754490899,0.0304907855928919,0.015441631265755,0.00739502379873189
0.0284456244573061,0.0328345044504233,0.012918479108029,0.00684993580869377
0.0278190788499186,0.0336024576512285,0.0117934630131371,0.00589371587122408
0.0241879371876466,0.0293758950139613,0.0111774316766626,0.00549820477186239
0.0421085578081795,0.0269589519273419,0.0135205147823399,0.00481414976602367
0.0296468473511414,0.0283581821130054,0.00861543281498734,0.00536426287308512
0.0322118086915141,0.0243072377950839,0.00992924023788226,0.00539360316232203
0.0401456312058214,0.0269470419506852,0.00947305183379945,0.00663752074879303
0.0428095002912475,0.0293628291154371,0.00921638534135083,0.00498896098990308
0.0242250668375317,0.0328307818187252,0.0116760378122183,0.00471031440985343
0.025118994853526,0.03007548240482,0.010674717305694,0.00618558920889321
0.0290677972924093,0.0372042734252422,0.00950146088250233,0.0039042329081436
0.0269207848049952,0.0306603454188603,0.0138369004164811,0.00532647474256143
0.0305902648030621,0.0312333503778206,0.0133485911946623,0.00702186512537141
0.0220049066656712,0.0283364765949868,0.0104754243411111,0.00461696465967135
0.0216556346212514,0.0382543794078194,0.0108186691958968,0.0054393656404335
0.0414890970153003,0.0303714846255628,0.0126891603893983,0.00499503522500101
0.0244876279417622,0.0377032703630716,0.0110510870590111,0.00561801515582506
0.0246954263743822,0.0261032367336817,0.0107276113812263,0.00836823653061983
0.0251724080783613,0.0361028630377511,0.0126686656406557,0.00634008076325797
0.0271670848378178,0.0287885489616033,0.0107492806502594,0.0076810390413541
0.0336474008347771,0.0289179435912449,0.00905617087559332,0.00641639749094195
0.0291565172021662,0.0338114953521364,0.0117066161070986,0.00523277721749375
0.0227087973368352,0.0288268284585443,0.0113652088847086,0.00567274997019423
0.0250900902874993,0.0250740569519472,0.0109559098699485,0.00722581841103114
0.0259793020221527,0.0290812913878416,0.0111443462688217,0.00560759905975128
0.0252779338176394,0.0372806457876866,0.0109255771841963,0.0057272410223888
0.0267504904021467,0.0301102682108245,0.00856779479969156,0.00570656893771105
0.0237021906563899,0.0228859466083504,0.00963856856549381,0.00617721255138214
0.0268750611991157,0.02926199395026,0.0109844831818138,0.00807604005808185
0.0284512878133763,0.0330144863858207,0.009794908518676,0.00611666278442416
0.0343165970385079,0.027409767266585,0.00947763415264892,0.00522627265428357
0.0241930162761747,0.0283524727319148,0.00988816661703222,0.00398892095720313
0.027850138157002,0.0261780903637478,0.0112555759681667,0.00654493522896578
0.0278965624807983,0.0332376503781295,0.00987127575143407,0.00474421832775003
0.0254179398088203,0.0382131955311542,0.00977945149159558,0.00573437215520764
0.0246053067355319,0.0285084626345832,0.0127542474763506,0.00723344717893971
0.0260927646774389,0.0270290048183635,0.00991579230385461,0.00523561734808946
0.0211248829029555,0.0348460443047377,0.00995833858319466,0.00719840585726707
0.0257303945946305,0.0353222002896675,0.0137248135627228,0.00487166442282862
0.0328916739967597,0.0295192877704565,0.0156453541410151,0.00554837110413812
0.0208158424984582,0.0381364735257058,0.0125247795406232,0.00269860601907654
0.0362368979258415,0.0525540458001038,0.0154937937477261,0.00375532718945495
0.0301160372193341,0.0435331781142721,0.0113183079321564,0.0030699040157391
0.025437632144607,0.043935043707801,0.0110200676946297,0.00283664275530895
0.0232702031148288,0.042689387026885,0.0141511256644157,0.00266017673088389
0.0326420684716194,0.0519193582693283,0.0131215160048774,0.00281003162005309
0.035370085672355,0.0554100918775239,0.0130366620547604,0.0028382850802125
0.0334754089838304,0.0445533146001681,0.0103808327963702,0.00315073778641966
0.0259758055269857,0.0539164055009253,0.0127178650380043,0.0031110364082797
0.0272535510831009,0.0560475860955563,0.012047084564692,0.00255370064357372
0.028628292088557,0.0462799244777733,0.012512814493447,0.00250447723453708
0.0205803356316321,0.050550643185887,0.0148463153474645,0.00340559352834516
0.0260343054193471,0.0455946753688141,0.0125658252776265,0.00335799537088382
0.0238166208313259,0.0600677866094401,0.0119900556503106,0.00258561690114174
0.0250546570134052,0.0376058037563009,0.00980067131356597,0.00320842421424704
0.0289726415019828,0.0403897675540727,0.0105233317725186,0.0026843605336112
0.0247868054933508,0.0504881323212064,0.013131020231074,0.00377428711820311
0.0234070098557039,0.0449281654579223,0.0109551312369706,0.0032148941591511
0.0228708718043501,0.037494598989516,0.0117571523543732,0.00301622880004962
0.0213002885969884,0.0494174342178218,0.0125118159709256,0.00264610385118549
0.0245012369039097,0.0638199476166345,0.0145497732023582,0.00309646789727089
0.0269056680774957,0.0428116569320143,0.00993835202386224,0.00279792937426983
0.0279278529682698,0.0451251687103944,0.0105374772402865,0.00239700564928412
0.032122211710609,0.0398243367558078,0.0125451503669368,0.00286539706580068
0.0236416114706122,0.0492284869665056,0.0116412955210511,0.00271497502004642
0.023444797945045,0.0523013517803102,0.0111694893938046,0.00274927961911918
0.0206213507798555,0.0452255772886077,0.0135987967005008,0.00264926621591692
0.0243637536687579,0.0404647923187492,0.0117810170438776,0.00292042392334899
0.0215031451392647,0.0457654005077405,0.0141581813131685,0.00292927513457332
0.0266418157379022,0.0500647470799723,0.0119832356956775,0.0034397573644046
0.0243805984992712,0.0464641489375212,0.0104241226443182,0.00311069963057465
0.0299310064303281,0.0543935381539176,0.0144534669461863,0.00313907942178845
0.0262341312134386,0.0639162365253086,0.0152183986706865,0.00332288932822388
0.0240195432059632,0.0550041342532722,0.0137321266125111,0.0031017378074132
0.0231125546660916,0.0398858267983958,0.00924708669710345,0.0020635318317721
0.0201713491274484,0.0425511468959817,0.00944297623325483,0.00268704443247979
0.0294374432255869,0.0525493015510737,0.0131771037456473,0.00301149393099268
0.0259991646502027,0.0576395022290146,0.0134872954026195,0.00328214662072179
0.0238303648348339,0.0434921823455415,0.011051217555482,0.0024595532057163
0.0224396462526968,0.0657403198620185,0.0160943828510934,0.00333679429547406
0.026257705528259,0.036767692237234,0.00978866102036367,0.00285726044655081
0.0196580720907524,0.0342735560043513,0.00790479719135942,0.00247193012542474
0.0280213039542751,0.0381372432484088,0.00976212749470605,0.0024132033309805
0.0198861220584455,0.0381421220058491,0.0101396637679054,0.00250848857697949
0.0258395551168125,0.0449177323266863,0.0107598930525208,0.00262332365482387
0.0307187196630776,0.0390209387979651,0.0122482105115307,0.00274466078843763
0.0250831914967189,0.040578200696677,0.0115627173121205,0.00264479630660842
0.024116185087725,0.0384418221743155,0.00958099204922576,0.00306514793867711
0.0274230284089017,0.0413456437109769,0.0095140929130786,0.00274435012902134
0.0291914109533895,0.0455585086094041,0.00987821839811099,0.00272042901256185
0.0217824192092124,0.033066574895311,0.00897573334764388,0.00224745191832045
0.0249181260205055,0.0360372958826027,0.00963476023210425,0.00253151646293574
0.0202971209263822,0.0326238963700483,0.0110513981698927,0.00265319470220517
0.0257922608472116,0.037487460021625,0.0109280520172175,0.00261803832095189
0.0236039347251709,0.0380857595443361,0.011589440167609,0.00287076844796663
0.0243241293305593,0.0322743698021228,0.0083019734819181,0.00299960599515051
0.0357780895090465,0.0386552145136534,0.0113340157249444,0.00241193225642544
0.0272540977389299,0.0343840308962923,0.0119200291114797,0.00279758209495663
0.0221409407060021,0.0367728164146551,0.0102160965481958,0.0027739744185415
0.0261922492023712,0.0603433661216866,0.0147840850375736,0.00298707667046495
0.0418206474119182,0.0113205792692882,0.0216950302065532,0.00241644090505936
0.03080298287398,0.0127035646829183,0.0232574776708674,0.00217375590223541
0.0379602029020905,0.0141514538118827,0.0230885734787148,0.0021530738099052
0.0485164322411954,0.016743026497867,0.0265817291101427,0.00198559680878608
0.0408650975302927,0.014177051466822,0.0274452400523601,0.0019108659948422
0.0535553956711095,0.0144431164693897,0.0243947398489536,0.0021758184585741
0.0367627494574125,0.0124140759248666,0.0242269464313711,0.0020827947882108
0.0429219801138085,0.0127583622203081,0.0283619550909046,0.00204176882497996
0.0442942492216115,0.0132807590594475,0.0257107008481078,0.00260777185815542
0.0429007300314123,0.0138284113665694,0.0213200337388884,0.00203345109515811
0.0495427110928346,0.0222930600555071,0.0225753953108449,0.00257446089057725
0.0391528014434209,0.0129440593835642,0.0240419737064131,0.00205144873872906
0.0364205428129683,0.0154024956415402,0.0254662025825085,0.0026958528245047
0.0315010552215772,0.00991140976533526,0.0292547728077329,0.00220745098754558
0.0413722088519506,0.0158560830373161,0.0252115241012764,0.00212293620315931
0.039615958170174,0.0145485796947986,0.0260074960937307,0.00183498210534376
0.0310066354767886,0.0139029280517325,0.0220203150178686,0.00178289015370193
0.0371963945208591,0.0112518031574281,0.0252988366921379,0.001873386074518
0.0382485008303828,0.0151493319592084,0.0235554271141211,0.00214946509065885
0.0399132380758975,0.0141627013127264,0.0240568929530878,0.00236928973922547
0.033389090852681,0.0145462264801191,0.0249602355505341,0.00181078976888334
0.0385385730275258,0.0152175539945684,0.0317032877805214,0.0022430547488566
0.0361193352696539,0.0123771370325076,0.0193050274028956,0.00229269564620583
0.0377230573244204,0.0131317446720933,0.0226591111184831,0.00223288024041325
0.0342652455884655,0.0137083631381902,0.0240019679347249,0.00205661708823489
0.041402926265358,0.0127334182273453,0.0218344133568381,0.00228243387235794
0.0429374004027213,0.015863533402219,0.0235108411610756,0.00206716739653745
0.0259397860099154,0.0136507443134201,0.024854205227345,0.0018054806757114
0.0477216629882957,0.0159849971835108,0.0276679379955731,0.0021323841078084
0.0436137677092151,0.0111794573321677,0.0314936427901132,0.00247678351539634
0.0388184481347997,0.0154168895348705,0.0234475500689307,0.00201812368796541
0.0353740917762786,0.0146858150555752,0.028351976471336,0.00233117152294584
0.0311941009643145,0.0115945709204809,0.025637306758823,0.00214827650826579
0.0467827588336075,0.0145442962475572,0.0279495809436719,0.00235846652046027
0.0308622895202816,0.0150590190851407,0.0231271395316599,0.00263705322096935
0.0460808455859123,0.0142646858256732,0.02947925607005,0.00250696006702548
0.0410948316234105,0.0147640976898541,0.0249524544954615,0.00212525585587093
0.0411410817594677,0.0128457318575503,0.0223478129940383,0.00220221259472487
0.0418046744806954,0.0112761873159071,0.0220602270476516,0.00214513180400979
0.0293045943614612,0.0167056240686051,0.0208611852925366,0.00189128360670685
0.036770628918178,0.0138741668502589,0.0224725475100704,0.00179622473111969
0.040890310596796,0.013336209081903,0.0277374773886444,0.00231331522908876
0.0503283430216144,0.0146895976455547,0.0314279526725839,0.00214991823284433
0.0270455883291598,0.0119872149358027,0.0217872776081046,0.00222017243504866
0.0402036795677771,0.0136904495182936,0.0224559043440285,0.0017631913019003
0.0392662424747157,0.0144371481553398,0.0240466407146104,0.00180939354174527
0.0349796214300593,0.0168239348268929,0.0302562956353334,0.00244600925748583
0.0395354679718211,0.0151253053548711,0.0228027879246218,0.00188829137176037
0.0422343346497309,0.0122663084922612,0.0258673984980069,0.00209315229531495
0.0326985331218377,0.013078110133031,0.022026133495873,0.00179944989510921
0.0396598494339559,0.0147671289480223,0.0235601750928521,0.00236837468630328
0.0374479114954388,0.0124121143920297,0.0231703446036009,0.00241558778749943
0.039624512928179,0.0130167992140097,0.0263333294165594,0.00192553472436069
0.0347834377484253,0.0134579928950439,0.0312741672318057,0.00211157711141804
0.0417907238051879,0.013796052076779,0.0227625336350687,0.0025242310233025
0.0381730322446986,0.0114430722201516,0.0213619725178451,0.00193212467731201
0.0431615716735209,0.0130785793686028,0.0240900632406965,0.00194882241908815
0.0281396649548496,0.0139633230183156,0.0248140960484172,0.00226273608051434
0.0292961842195913,0.0143537997638317,0.0273320864114575,0.00235642073914714
0.0344210484389508,0.0134730944996167,0.0239348358064519,0.00220942872859669
0.0159827974161568,0.019507916601659,0.0110629133619424,0.00239644934620864
0.0233889092093806,0.024035361070395,0.0159359874527187,0.00253091388639798
0.0360759416454928,0.0262479305228711,0.0142512672093128,0.00267246946528244
0.023879156756107,0.0196362237182472,0.0121104832933318,0.00233378939440911
0.0281106048434357,0.0199024716907822,0.0121890938143889,0.00236624152530519
0.0218293314100247,0.0199105813026117,0.0101284235135968,0.00213935910490001
0.0231256241268019,0.0205675147429984,0.0140865741594395,0.00234342197633566
0.0198667696079421,0.014277503087525,0.0113974431319121,0.00204281778508574
0.0246931431284677,0.0188720021594421,0.0132570986638747,0.00217772318025789
0.0252920955121741,0.0215056819280562,0.0123162040364417,0.00216851538662884
0.0261216371960755,0.0204646687666348,0.0119872978825551,0.00223771315760168
0.0282583643913511,0.0206120140066638,0.011092069412559,0.00212285531529911
0.0206930769834877,0.0171399757828222,0.0116527717594179,0.00201177850045127
0.0205280534953938,0.0177041885359132,0.013036888192208,0.00209783350038191
0.0221416344745688,0.0185918548976872,0.011592022411053,0.00265889285618288
0.0239266230992809,0.0168952249942237,0.0105390470659453,0.00250605156767557
0.0211587930248605,0.0175220842027239,0.0107398953589364,0.0021691284292444
0.0231602716206276,0.0134558740953191,0.00841008764318441,0.00170989413803321
0.0258957381590944,0.0151989759488816,0.0120741090967146,0.00220070703477908
0.0315757901478121,0.0157078777260805,0.0139239143576025,0.00189619486625715
0.0330118013118386,0.0183543676672419,0.0133854103049083,0.002156172238002
0.0276447245645605,0.0155055109408373,0.0178292433569189,0.00201987401625874
0.0253802427037683,0.0168485272438831,0.0137859616051665,0.00193971225499598
0.0362184193797649,0.0145918695573304,0.0120202926737015,0.00200556505150427
0.0275720373941277,0.0172837852136102,0.0153367668073768,0.00245250073519684
0.025605073667936,0.0153894234725438,0.0127399100627615,0.00233726252747289
0.0297571072217829,0.0196126702716907,0.0141299317921909,0.00231486732444924
0.030720397210188,0.0178074516715628,0.0101646882043901,0.00225471419840784
0.0255558159554865,0.0179021461147553,0.0114696358752905,0.00243921349277578
0.0275783133089421,0.0163325367239584,0.0110356590768701,0.00225615009810803
0.028683941602435,0.0203493938584314,0.0124506393985095,0.00230717374882464
0.0254167382042052,0.0160312968739956,0.011215847664462,0.00231741425646598
0.0252866035087949,0.0182715772314614,0.0132525556790829,0.0021797469096987
0.0242021079592624,0.019193641427475,0.011590803755556,0.00283689070806557
0.0207237724792347,0.0145991557841678,0.010271706540942,0.00235175673223877
0.0243962986534711,0.0177972817914109,0.010505139182919,0.00234881186364721
0.026217566105281,0.0176494255457876,0.0114081418784998,0.00203117587896454
0.0276711460418579,0.0159828531890188,0.0105046748950896,0.0024253748205889
0.0229517175082432,0.0191528945973989,0.00977785896997277,0.00215175110958618
0.0234486663305492,0.017018684710491,0.0105448576791404,0.0020810378478396
0.0252736535496686,0.017399122332829,0.0132927106955899,0.0025674785328156
0.0243222324318419,0.0152787499500584,0.0105354826767674,0.00216533697516024
0.0204572332550673,0.0169473058469159,0.0113887146585203,0.00216341108812354
0.0257976720060096,0.0167408255052882,0.0110732945653983,0.00220874897738402
0.0236888385198731,0.0192323019696755,0.0124325217370639,0.00219428624993475
0.024401316727656,0.01498415089723,0.0118473328497188,0.00207657050252626
0.0199024940870306,0.0156753005426804,0.0102616967940044,0.00244980345838028
0.0250523702132129,0.0169144527266526,0.012151177913386,0.00224207753429176
0.0253177808205999,0.0141204272053431,0.00807742908546347,0.00172998747842384
0.0235631959453674,0.0123826446987523,0.0126784969769524,0.0020248597128457
0.0194506051440803,0.0179925015866447,0.0103565942573185,0.00209462786568288
0.0228873521184059,0.0270609528955848,0.0106193788232597,0.00297841439076142
0.0233256684456851,0.0230191714702832,0.012214728180065,0.00277518994427281
0.0218025035059992,0.0178177531225932,0.0134328559364852,0.00229767433192132
0.0269302750784128,0.0174627979580356,0.0102460078892249,0.00269379856787337
0.0235142502446713,0.0194093992682482,0.0121839688487905,0.00256171026926616
0.0221865361915681,0.0163328351100042,0.010812774015801,0.00214319528555547
0.0220046453982405,0.0205536698570958,0.00959759825259211,0.00231856987064652
0.0250563959893496,0.0195796033209632,0.0112606004673822,0.00242278665534004
0.0217965243112051,0.0177258122649843,0.0110845371257224,0.00193954285895192
0.0250103712535614,0.0322435941558997,0.0144998082500191,0.00184870657234513
0.025155060518414,0.0387008958750571,0.0171070147955039,0.0016754892151232
0.0234668541097541,0.0308956928382665,0.0148592167502064,0.00180714828775242
0.021102328790437,0.0337081145228289,0.017079830326837,0.00171888846922216
0.0218453853342062,0.0338622442410879,0.0215302245932976,0.00151247439081056
0.0220475654733791,0.0284863788292236,0.0154013156037812,0.0015368052387161
0.0174292269491286,0.0337916791463745,0.0150722005736844,0.00150457074338053
0.0204818367949697,0.0292709463811636,0.0134826943515891,0.00135089081021488
0.0180325874897379,0.0332979596666151,0.0147923416196533,0.00125456026044649
0.0214689756736393,0.035293302689089,0.0171152724728951,0.00159328369749787
0.0161075903461356,0.0231452310725139,0.0144938683541358,0.00170070532920346
0.022494309042996,0.0286945147972023,0.0145507938140095,0.00144279825217874
0.020214986931522,0.0271469226458832,0.0186480051683345,0.00168775667217522
0.0191093079292545,0.028422263344247,0.0138657331112733,0.00130055984559324
0.0235530321718149,0.0313446470797306,0.0165606668445093,0.00160764013728974
0.0142231066364327,0.0268987935960817,0.0158929742925872,0.00149289026077056
0.0197277338773545,0.0284324539359018,0.0169981048719754,0.00155651471669342
0.0232721385420807,0.0278441546296662,0.013208747304266,0.00133579014242734
0.0168778026081283,0.0293346350164658,0.013660284067372,0.00149045208086475
0.0164784771296461,0.0292580468662633,0.0128397171978382,0.00154645563902842
0.0190770478446366,0.0240246773630226,0.0143979713555451,0.00169993542890946
0.0162428892842636,0.0289349541041105,0.0141893728431271,0.00153899742873273
0.0174399390123132,0.0248363087263135,0.0136626068278001,0.00123885182936092
0.0196418987033695,0.0272495460303431,0.0142342762246639,0.0014103010897463
0.0214822773297097,0.033371360335547,0.01344263342885,0.00155614934734541
0.0251063227461935,0.0236664667918358,0.0140904485493991,0.00137771581735411
0.019609268731261,0.0312976144478061,0.0159046534074538,0.00178218394933772
0.0225567715774343,0.0218941821721091,0.0120201681022858,0.00116661788649751
0.0167672553704607,0.0278760246527307,0.0155306009660906,0.00137754555985519
0.0195123886512426,0.02498358840977,0.0110653890822117,0.00172374252248834
0.0181318467491327,0.0284791929908378,0.0148521617186467,0.00144196387170161
0.022553828120065,0.0329749560362447,0.0129154348351153,0.00161458105756612
0.0212185228189544,0.0318681937770348,0.012575933747229,0.00146210194116459
0.0208078857736813,0.0252703175619548,0.0126317574796247,0.0014674446290696
0.01787191542532,0.0272574489387679,0.0124908631122673,0.00154220997382405
0.0241053564290045,0.0284764256373168,0.011069676542172,0.00131462769168117
0.0222683465058806,0.032065031671995,0.0156287261460016,0.00103044798290663
0.013630411981005,0.0255253762413987,0.0158660501863512,0.00172243241001284
0.0219731700816002,0.0199190526419884,0.0121570212671689,0.00129854810405288
0.0227036855702246,0.025470972185461,0.0142316686489022,0.00121898558289809
0.0248864766776724,0.0282714139888284,0.0114106683592693,0.0013738111647168
0.0212212285592966,0.0321371409383597,0.0162793506833156,0.00151698085048768
0.0303909516604782,0.0377331969104765,0.0126395458314943,0.00129902147205283
0.035832527437521,0.0388145170277284,0.0124508785870553,0.00168284829338894
0.0301285733760121,0.0290170056041438,0.0120939960914986,0.00169267396599155
0.0283591875029918,0.0251785623932339,0.012369839349418,0.00143097700582208
0.0250048039009302,0.026864353545352,0.0143725715895797,0.00174667981828731
0.0237186940656916,0.0333925565666027,0.0117631523333726,0.00137409588123152
0.032957199201057,0.0340068079033431,0.012206979760529,0.00180597107950257
0.0357470962455808,0.0294208276291646,0.011286035288654,0.00119876819260658
0.0299317489865217,0.0391123177089604,0.0150707715536247,0.00155958796014015
0.0283971571996046,0.0387394257744058,0.01036454642221,0.00145359850339152
0.0344802213867997,0.0306353638289669,0.0131701459948495,0.00139835483360399
0.0328804073726081,0.0309696118345131,0.0118900656964419,0.00163730917323254
0.0229096259996222,0.0313228978807475,0.0135263131309854,0.00149141610433522
0.0276069852194956,0.0302692446153278,0.0154588613404334,0.00142489881001979
0.0216696166372985,0.0291933591907562,0.0151738282604746,0.00186855018658654
0.014951020185985,0.0251494234509371,0.0146699922272181,0.0016887109331985
0.0226488007573011,0.0322656257459498,0.0136754106861252,0.00160858508127388
0.0244340248324118,0.0297805568103339,0.015530983154357,0.00173946833816145
0.0418641781539654,0.0188478742572585,0.00809383627037542,0.00113895208741654
0.0316521008162565,0.0212381285058053,0.0081001013417295,0.00115887692285566
0.0336814797102032,0.0158958055799385,0.00732111318498458,0.00129349162984083
0.0355189029156809,0.0248096440142117,0.00762529761590292,0.00129381402479147
0.0289631610018669,0.0239309455489066,0.0064945988059086,0.00131769545053538
0.0409380729602125,0.0186593136023927,0.0078410241373971,0.00118815767940771
0.0508317455396606,0.0216672779632649,0.00867986654368929,0.00127964813084147
0.0317822103215743,0.0161433217048746,0.00868310749123062,0.00126360863017368
0.0331558808337038,0.0221322567461295,0.00968562143688905,0.00108743287243199
0.0437345519437365,0.020398307726931,0.00901480078626402,0.00134523905976512
0.0292015505972446,0.0238340248805963,0.00891028433607126,0.00125396821455657
0.044282276219861,0.0197261140633691,0.0096544104226479,0.00122046281227703
0.0365109444941265,0.0203380061902328,0.00719431280494416,0.00119243084279196
0.0359521990450099,0.0252731817034223,0.0129011108990602,0.00130404976097656
0.0327573243051904,0.022055907055991,0.0105730622142695,0.0013265018452155
0.039296689072215,0.019057797900578,0.00831294296364594,0.00122941608114268
0.0374601809295358,0.021686425536392,0.00844163802062955,0.00116518670767504
0.0490296533151209,0.0211112665663076,0.00791554476321846,0.00101407088536566
0.0525517666161765,0.0207305272463891,0.0085683027885061,0.0012775712140003
0.0329703898856676,0.0205805621817458,0.00851214558019926,0.0012922794726502
0.0303238907103783,0.0202980178808898,0.00689221593542612,0.00105937227979208
0.0450394290842029,0.0222576863526672,0.0116096209500994,0.00143527616789688
0.0447932448285289,0.0189452676181328,0.0101114282951148,0.0011039653669032
0.0299683120263214,0.0235748975401505,0.0112517307924697,0.00127656277731178
0.0434363752610414,0.0210223109540316,0.00925874406536445,0.00112425299280648
0.0373508135163287,0.0211970081764603,0.00851218366402495,0.00113866753651228
0.0375261956405545,0.0178058323211162,0.00721690090137011,0.000922311650144112
0.0442799812308163,0.0205530889816764,0.0108288369745503,0.00122664486117922
0.046969985903895,0.022082849556616,0.00659752379744469,0.00116216297375753
0.0288463298952439,0.0188806920080027,0.00856009407270912,0.000982635958824951
0.0398389494367167,0.024702728339229,0.00936376190841547,0.00112845106707272
0.0406481356302395,0.0260530335743604,0.00997242969479963,0.0013558381161414
0.0411798370652241,0.0239833518512734,0.00833705967102738,0.00114864089329317
0.0310102151080845,0.0245723555897609,0.00921152360979395,0.00120297657684211
0.0395582425986563,0.0165776799553881,0.00894270786772935,0.00122285192192653
0.0356982389377582,0.0184673196768476,0.00914862952016486,0.00134505518884295
0.0335429602775655,0.0227409698053985,0.00831650702538324,0.00126628415076623
0.0453770741217839,0.0214669845017835,0.00844497002624833,0.00143248571457235
0.0360279062371903,0.025088835143588,0.00880879132232854,0.00123853849473141
0.0369201367917464,0.018277747068944,0.00805520993435017,0.00117610543220789
0.0442172457124542,0.0223884893229646,0.00765815911682441,0.00106357191688956
0.0407310035336226,0.0205374697781471,0.00892115347112598,0.0013602047958358
0.0299034097553348,0.0183890378301382,0.00732602845443559,0.00116388546774896
0.0400377694456501,0.024736025884028,0.00860523616400684,0.00129333521643392
0.0360382761868845,0.0223712771040452,0.00882097873793971,0.00104014186101078
0.030775103385424,0.0162320872032984,0.009439321327396,0.00118575067101896
0.0390768728438166,0.0207782458678229,0.00957716506074567,0.00102290110791988
0.0353399414505348,0.0153692659695438,0.00892175083003882,0.00123995910368429
0.0312455871188934,0.0222243152283422,0.0063906388056768,0.00113419108501229
0.0346944806465848,0.0215353123930943,0.0077329288656413,0.000978092147739244
0.0306946458513961,0.0198150824001787,0.00710753986773784,0.00125469880833034
0.045931178882063,0.0239281127608047,0.00845996037596652,0.00110748957698173
0.0371749641312201,0.0210333235602382,0.00838572811294304,0.00126909200015669
0.0505178308197507,0.0210533395270215,0.00696761341809079,0.00136460299548329
0.0322057631939267,0.0204496444210422,0.00783516316389593,0.00115352599400869
0.0379317748102059,0.0209020041275407,0.00721270172385893,0.00112130727737931
0.0267506605026675,0.0182252539956752,0.00777989819146167,0.00114644954663673
0.0376458379733513,0.0244626150628896,0.00894127184856213,0.00148988595032011
0.0314339936210175,0.0183336709499885,0.00954354907652233,0.00115350260213431
0.0378624558300272,0.0207650906285117,0.00914289901635517,0.00133353753721902
0.0101987559474012,0.0216948805610873,0.00853194512323342,0.0031969020964219
0.0153233562463892,0.0289781458574613,0.00909152461694627,0.00341884807961388
0.0110798350420346,0.0290080688349909,0.00869662484810502,0.00299395517991981
0.011437767099073,0.0271931259072661,0.00853364037750351,0.00274459255124909
0.0110097062805003,0.0283645559946465,0.00795407258248559,0.00290874233883762
0.0113748592692336,0.0209166424807927,0.00760975964823579,0.00248675524078792
0.0122470149636422,0.0354737656546702,0.0102401641771498,0.00274558084264917
0.015762770028553,0.0252568316163982,0.0078280980820382,0.00240499630484905
0.0113371949756416,0.02815282735334,0.00901858634879379,0.00337480284727084
0.00981713565924938,0.0216131346007804,0.00644715810858323,0.00255656732000089
0.0112025208536306,0.0298608138516307,0.00820857434845772,0.00232022419606425
0.0103032269695028,0.0187792782723646,0.00756171917925229,0.00299378359263984
0.0121154967285555,0.0249530521507951,0.0100779476767484,0.00251462637928566
0.0115000369573492,0.0214153276712573,0.00739063778504004,0.00325461303764906
0.0107517818494611,0.0295455434496032,0.00745981271894463,0.00216598279098019
0.0136338182041943,0.0199727962850193,0.00775515810379225,0.00322926813916292
0.0131284753921413,0.0323424567876948,0.00894458674657852,0.00210574808792137
0.0107813160695222,0.019108451441832,0.00680438785989559,0.00277343456002017
0.00993019951586552,0.0259746113888081,0.00794843979906566,0.00270999389103623
0.0124022446739343,0.0267143934989164,0.00796689053057426,0.00334230864253793
0.0125731075600895,0.0270718890181561,0.00909842564228844,0.0023811998738207
0.0102608454207055,0.0276517733712788,0.00879969228582419,0.00307049520345308
0.00995881312946697,0.0273557682186015,0.00728782672800378,0.00229191214547536
0.0128225329049505,0.0306233710715067,0.00872965823851947,0.00277651176815083
0.0155238725624798,0.0298213171550613,0.00729079383590342,0.00286611855272569
0.00910180723686201,0.024943515161055,0.010106477050275,0.00278016176581748
0.0113703795899444,0.0273499901715954,0.00905559311943373,0.0028396468762687
0.015126241626521,0.0241710791002854,0.010308092662601,0.00244407757523051
0.012303972509026,0.0274968515173051,0.00872369226180189,0.00308733830364528
0.0138271537364928,0.0321983518277214,0.00867101076560554,0.00275081725796435
0.0114040659625567,0.032429876457927,0.00922769159698638,0.00271329751620059
0.0117547058839466,0.0179001080652922,0.00934117311764866,0.00249864000594251
0.0118755108148742,0.0242648843005357,0.0076987519662605,0.00275518318945945
0.0114816847842863,0.0315028397038984,0.00668359169819539,0.00297482233187721
0.0122682382675431,0.0280013951888438,0.0088154195703761,0.00277569585611318
0.00986389414263866,0.0247392542427597,0.00698920942573945,0.00331112357413039
0.0124617744167049,0.0301447914997078,0.00788883619466912,0.00308099355283927
0.0118530210928773,0.0307737089145353,0.00955081531306983,0.00271209000982432
0.0125576918979006,0.032530203546345,0.00895824077432324,0.00285071780362355
0.00975301077766331,0.0210819753063639,0.00743853696409495,0.00254843699544098
0.0118033418116688,0.022938980381919,0.00779975502317508,0.00300859609196681
0.0113528328912836,0.0198621312673086,0.00729537307623429,0.00255049917306308
0.0114939298730296,0.0288699261467839,0.00732403622289206,0.00256792800300093
0.0122222745928687,0.0254390736552069,0.00942351942068003,0.00296063137818195
0.014416310457669,0.0288632314374152,0.00817827423645434,0.00220435975432899
0.0153950672462481,0.0301835860982733,0.0106568064504634,0.00257412285336101
0.0160766732279318,0.0260639620186294,0.00971332724331635,0.00296477705380047
0.0107040313493018,0.0269446828310787,0.0091068206440377,0.00401802261907531
0.0181181029480584,0.0204805867629758,0.0110659362255883,0.00238814645569055
0.0124154498329945,0.0274373072095354,0.0105644776558672,0.00285221390770405
0.01306216112578,0.0245968911848172,0.0089864797746616,0.00353116789364504
0.0159400987072074,0.0199679402122556,0.00696838895095328,0.00197195065773901
0.0114118768640106,0.0236143649832215,0.00871999081473454,0.00237516185174105
0.0146524277781145,0.0205506151284446,0.00923965055874035,0.00321406161191644
0.0127063282407679,0.0245627115992183,0.00783845548234271,0.00256855430118757
0.0141475840505409,0.0243575240290696,0.00852788976923756,0.00319536401029055
0.0151312984989783,0.0273176241139871,0.00930266393539538,0.00318627551855517
0.0138611857380519,0.0242850663172523,0.0088158363209089,0.00255822580607637
0.0114460968267544,0.0210030234519905,0.00862086302334503,0.00228255089251896
0.0129738412324626,0.0230428667232871,0.00896864391512893,0.00259287195294857
0.0268434139566699,0.0211049481122425,0.00729845436453732,0.00180703006562134
0.0196113304517386,0.0203555039485625,0.00835052386980582,0.00191936077382124
0.0258592727773433,0.027874510775547,0.00598190804802764,0.00180914605054192
0.0232255749277838,0.0372548960368192,0.00852734640773259,0.0017443967642825
0.0192126147625537,0.0180613009162484,0.00711893836444648,0.00204010924082204
0.0246117177793374,0.0171700903729931,0.0101648593392299,0.00215469634277141
0.0198593376762539,0.0218666599015594,0.00822158715404497,0.00153880936906471
0.0253748937146494,0.0184175131273242,0.00761241192840634,0.00134308137919497
0.0276139676386667,0.02818412529089,0.0087592839541906,0.00175132065225186
0.0239007479704909,0.0184626411782357,0.00949435109313103,0.00198099160411808
0.0236587785638941,0.0180527175554564,0.00866822322846117,0.00221187778545558
0.0178243846734106,0.0186615025780813,0.00673015005533433,0.00151960419305511
0.0196551790558714,0.0254661132593598,0.00748622731229271,0.00180662199882646
0.0203355581179226,0.0231325042711191,0.00889427411677666,0.00177857669377425
0.0226138212803176,0.0239917895381442,0.00731554522276206,0.00162043842852558
0.0234466541420263,0.0214358911246309,0.00836477063223824,0.00183466967866946
0.0201600013730495,0.0192052892178311,0.00894602849040451,0.00159392146822915
0.0251176145057401,0.0249346291651996,0.00995578431861913,0.00175719571726866
0.0240440288183356,0.0209545321020158,0.00757398461990114,0.00178964904488196
0.0220552665477124,0.0176988228111288,0.00717785133426276,0.00181032003149972
0.0199690543315647,0.0160006026192275,0.0086440648426603,0.0020698452672111
0.0284140382436807,0.0218970702217902,0.00952214630150457,0.00199917418562402
0.0220233551822498,0.0228220610475927,0.00676470854274805,0.00219548755657925
0.0201320662743923,0.0211832524696095,0.00733059513092488,0.00157593224514278
0.0208520695170087,0.0226687566354214,0.00532504645350021,0.0016229726684307
0.0242551856522708,0.020954449766144,0.00765620218154983,0.00180964213426469
0.0242914537609452,0.0187666412806236,0.00939276911965962,0.00191806924023482
0.0231452212843387,0.0236050506273054,0.0080425837521578,0.00203995791684515
0.0193155320139964,0.0191112997182665,0.00686089982155746,0.00139144767665866
0.0225117789152414,0.0223940891082109,0.00774905651395269,0.00133790556031648
0.029402668816706,0.0187339952795731,0.00711946446497459,0.0020612876264509
0.0223179479947981,0.0217666696525457,0.00637460822889399,0.00171143515438966
0.0251234976164695,0.018443766210389,0.00833359726213672,0.00186975760957359
0.0271971018028607,0.020647426049093,0.00571154793416063,0.00171148459832
0.0231367213084928,0.0221155382060047,0.00843640737936088,0.00203097589831499
0.0212441393797964,0.0200337885456036,0.00840212479438251,0.002056426884874
0.0229331366072061,0.0212387806374013,0.00805861927760762,0.00193842077724779
0.0198985873219699,0.0208660093139558,0.00676694381129939,0.00173136546944215
0.0229412789310634,0.0236641501365542,0.00764176445500572,0.00172466537350971
0.0223702230983697,0.0226748870017755,0.00774656875011384,0.00193755140930494
0.0228530627590405,0.020325099703984,0.00710083117799856,0.00200632070040133
0.0202831093031632,0.0183293333566147,0.00758425385272482,0.0014863635502672
0.0250529116342659,0.028642882421414,0.00775818964855751,0.00163036062104332
0.0225337455190197,0.0215855489708267,0.00699482606758505,0.00158857390187226
0.0265586248854824,0.0230841793214748,0.00611793330864931,0.00176141153463802
0.0233970940285329,0.020705005770139,0.00609838778397383,0.00188999238148712
0.0172799202440133,0.0176147964778546,0.0069822842242842,0.00143422091790723
0.0190978823372903,0.0181674549983564,0.00803404733446312,0.00146958291325013
0.0220943751243994,0.0220676920910224,0.00813195311460252,0.00183576695824122
0.0264095774661332,0.0243750928620415,0.00756942079113107,0.00218532286665033
0.0234933116345624,0.0216552437071643,0.0101179978133845,0.00199870223606251
0.0224370516136936,0.0271922687015658,0.00778704650428256,0.00200732368920045
0.0206965755583912,0.0239380511079972,0.0075518127067485,0.00196556046650134
0.0202104947402836,0.0172781560932577,0.00613154887993106,0.00161487804321358
0.0227285772561559,0.0215157804090296,0.00772325446479952,0.00155371777898678
0.022572994688163,0.0201498474712358,0.0070654370932723,0.00132440158089779
0.0213773043377501,0.0207586738248952,0.00885596483130171,0.00223311757265073
0.0231195564542776,0.0222393005602133,0.00726032044379651,0.00191167881818118
0.0269453976098253,0.0263454432095763,0.0079531695312558,0.00193293598899762
0.0195064754499983,0.0214767922661513,0.00577740422527866,0.00148513882934279
0.0104757317353966,0.0148429214496036,0.00738306496584543,0.00210469438966664
0.0126511212901211,0.0121341745499009,0.0106765781245052,0.00302043676698356
0.01703077411835,0.01367103361398,0.0122466286541239,0.0024739500261294
0.0124819232550411,0.0169071887143272,0.0103891635879775,0.00263331149942319
0.0107119448911155,0.0151019351573998,0.0107916788995656,0.00260485356467157
0.0124324490415041,0.0197080582026387,0.0121772863951295,0.00255197722432022
0.0110872163318019,0.0138984078415456,0.00778147824722917,0.00208939419576327
0.00933701642003729,0.0136294897974064,0.0106361351515468,0.00260306849132397
0.0111596780622066,0.0161492406552319,0.00741398684455267,0.00203773453801796
0.0122443804644146,0.0160552472195209,0.00899078949496455,0.00231955033572049
0.014264217075963,0.0155024641166217,0.0104108105936081,0.00194679051847393
0.0153077037649291,0.015916775552619,0.011135617579565,0.00221584127015091
0.00972397809901529,0.0140859383998455,0.00816732323563869,0.00205262838790648
0.0124284511676683,0.0157289604214391,0.010723952998748,0.00229073702192525
0.010774994098465,0.0162612767125017,0.0109861675372946,0.0022054602870936
0.0128172086924083,0.0152549669570682,0.00769624066344149,0.00192060226685647
0.0141606480603226,0.011790447934632,0.0103314057786903,0.00196406252852154
0.0122530240431032,0.0116023785428431,0.00961473132059821,0.00214319599741971
0.0124386072090542,0.0138567974217255,0.00866999799195732,0.0016043589604059
0.0101403324619514,0.0153750435161703,0.00751289788989248,0.00227258980736723
0.0116377708855386,0.0137438473779553,0.00757324319268729,0.00185547954526791
0.0121351029844373,0.0160708399030024,0.0111129219740073,0.00182965479215323
0.0110438072371532,0.0127736626245372,0.00929571452582353,0.00161259769963075
0.0114452301265618,0.0131293823926218,0.00821025848184353,0.00196645275424689
0.010221382204475,0.0118372216910679,0.00784563727096123,0.00200661490479307
0.0105973039865468,0.016373739046518,0.0118714823640308,0.0023272410937078
0.0150473356567401,0.0139216137747438,0.0115523510765818,0.00211463412167155
0.0136491013862472,0.0118830382734893,0.0077832586347828,0.00197773519627593
0.0134147962511605,0.0108476783215689,0.0080046246850477,0.0016242131693878
0.010735296802383,0.0132839759177166,0.0103146580664911,0.00220847197304354
0.0115344830573969,0.0111118169926223,0.0107196159811626,0.00181993647774324
0.0143878387921549,0.0155665923754971,0.00857268454213885,0.0018647595400735
0.0116241035141394,0.0138605592251816,0.0081356458806424,0.00196936254327034
0.0123179603496391,0.0163375059873616,0.00918567539470682,0.00222377512105009
0.0113000625435223,0.0127088189871681,0.00783800665326499,0.00203739672467752
0.0121531172251674,0.0146271701293401,0.0084093420747989,0.0017632870311172
0.00949258959033456,0.00999271450755871,0.0066073874611326,0.00156033634261803
0.0104191117838652,0.0156191877053699,0.00968681183991499,0.0020910662133306
0.00880329356225164,0.0162294033004664,0.00976144900556867,0.00195564443572324
0.0120128333908208,0.0125658379527958,0.00832308969092988,0.00196191408109809
0.011016350115121,0.0143340195502461,0.0116623433468839,0.00205978129920007
0.0124737748665196,0.015185373277371,0.00869200118655008,0.00204959524433495
0.0119800687827879,0.0134664959398999,0.00887765445149732,0.00199520187677297
0.0154433735321537,0.017815858587846,0.0106498882553725,0.00189476248009807
0.0102128756909377,0.0128803533865365,0.00994500720105505,0.00150581107554299
0.0118399661706524,0.0125100155239379,0.00778358749854398,0.00180930329890282
0.0129727216204383,0.0186643413174486,0.00934493176677396,0.00185795415581726
0.0125086066003815,0.0149810218371302,0.00973183063457643,0.00182136426253814
0.0127289200960601,0.014561656466623,0.00943797466806197,0.00201897720106537
0.0106740091904205,0.0155240225328258,0.00989561564748974,0.00207937990797576
0.0103093199158781,0.0143192430575422,0.00727671506675321,0.00164280023357796
0.0134002975897795,0.0174091179499235,0.0111148460669745,0.00171823193148654
0.0167403222181427,0.0160829314273321,0.00823026981980552,0.00153002046207842
0.0149139903203475,0.0158902166306039,0.00838007611201147,0.0017781920983521
0.0108091568279269,0.0136465945963709,0.00791846700425679,0.00188787934716763
0.0106423324140273,0.0141164283746592,0.00813053918178401,0.00180130826862279
0.0106196677191515,0.0141111109413818,0.0101316778990308,0.00239844504714271
0.0129253802121044,0.0152252735763749,0.00815618572480524,0.00178163672073961
0.0137654097443132,0.0148212867164337,0.00945659722805791,0.00166300333610196
0.0113175294295705,0.01262429847544,0.00933810597797729,0.0019249117756214
0.0311532149620754,0.0399740003393404,0.0177056186702113,0.0062845301144185
0.0380939185439845,0.041423643610514,0.0230220777271163,0.00497762199297423
0.038105403825217,0.0359917163033971,0.0187921655218292,0.00748260728859811
0.0371493454419877,0.0397271323198053,0.0172385659524807,0.00607921076472341
0.0282289958326978,0.036023769185416,0.020518420679924,0.00575478401266664
0.0339833508246516,0.0481994986189593,0.0173277454132483,0.00627074910763642
0.0393578196758298,0.035196601391466,0.0131538372691054,0.00518287204999467
0.0368013493002091,0.0372615367936849,0.0147648804602764,0.00537403493371613
0.0375317156531744,0.042048044828223,0.0182581569721773,0.00460238290067429
0.0303580289392001,0.0397243020129135,0.0146533592923314,0.00421615727896187
0.0298245996035618,0.0425922346822342,0.0189335281952729,0.00578073510196343
0.0329793973274821,0.0458638658900466,0.0147699034275934,0.00525477288696014
0.026754494185467,0.0452788479206145,0.0132491092180453,0.00533910818825776
0.0321337818843478,0.042016381059992,0.0173449236435872,0.00585184650316918
0.0246459941398537,0.0426031620343801,0.0174720148201105,0.00481125211676879
0.0348319434660757,0.0451604688690214,0.0165629759870045,0.00514696772053772
0.0253613317105919,0.0387959143138844,0.0147227925967032,0.00589508799340802
0.0491523410063513,0.0450259047955904,0.023864279411369,0.00642826785562824
0.0384944884554078,0.034359109813741,0.0170664740743656,0.0057464624733083
0.0278496922469029,0.036909054440756,0.0172912595515423,0.00506720143882477
0.0307151958582532,0.0360601968192465,0.0177767388140263,0.00698609136596834
0.0374537247217941,0.0548294790605619,0.0164932653429628,0.00587380615254898
0.0343052339956995,0.0342594872359332,0.0168701090873538,0.00678742950387974
0.0329842298055252,0.042904714880823,0.016971623186351,0.00551660936422027
0.0413064048111512,0.041958127143563,0.0178571396437127,0.0057763396342582
0.0337614046767357,0.0433681351231321,0.031908812179664,0.00428831414992936
0.0333883109924976,0.0329110767365393,0.0137815446639499,0.00509048737821698
0.0304777039885826,0.0407881589062434,0.0199514594945583,0.00520849444567747
0.0242320964888805,0.0527070152596356,0.0146193636726402,0.00651644974249844
0.0335330555924719,0.0373120412482551,0.021367615477205,0.00515073606614315
0.0332721712458245,0.0317831745253766,0.0182818320009403,0.00468802773992068
0.0359994482770152,0.0455767298725534,0.0181547841591433,0.00462424387119339
0.0370916992204612,0.0341312073288145,0.0195167474997373,0.00404413431555394
0.0414493717124837,0.0313820141892719,0.0251404812239049,0.00491217420423395
0.0327750653599853,0.0403871756543579,0.0254019999285914,0.00571749964522873
0.039090393654851,0.0455944710562803,0.0138041979820666,0.0043760512829738
0.0426475755924013,0.0419280487272213,0.0185158004972732,0.00521609225228319
0.0355738847986859,0.0398103010117005,0.0178478536195149,0.00542750944765644
0.0285363870172821,0.0357346502750142,0.0200699877555911,0.00358490306920458
0.0292924967382878,0.0387727762049258,0.0230167693073259,0.00252683259993577
0.0313405913600418,0.0453547570760822,0.0191198367052376,0.00545206647003501
0.0443027421748857,0.0327223666797733,0.0212288915702789,0.00444687386165249
0.0474722479561718,0.03715073439773,0.0286946396858747,0.00435992374955563
0.0402697084495258,0.0386367482304585,0.0296522643376471,0.00475683627540838
0.0402838346349588,0.0383333689150074,0.0195335795010615,0.004976801987451
0.03651648348642,0.0401664936344093,0.0236558491831415,0.00380187655767262
0.03413321522156,0.0545885686777458,0.0252316837675018,0.00452409413605585
0.0351407963249513,0.0498173760439215,0.0246849766662595,0.00297774277501939
0.053870718195294,0.0427622616894097,0.0308038584043207,0.00502724474123061
0.0478487756769466,0.0489788946687846,0.0241831242524845,0.00439427804348079
0.0393044962327285,0.038596921854716,0.0200806700974849,0.00409099020630114
0.0339072810977854,0.0507809912393948,0.0187540310060004,0.00396335366452804
0.0468918712214027,0.0465066973778399,0.0170817704905442,0.00474485201024569
0.0410245892757889,0.0393587940791154,0.0186166683258233,0.0049334900588442
0.0307071912458155,0.0478712504901357,0.01484724235818,0.00283628593149512
0.0286936012642163,0.0490158381083555,0.0176210808626828,0.00492236455875105
0.0411546124175696,0.0434173650260912,0.0157361952187654,0.00520328729910081
0.0346040909852876,0.0430515302786414,0.0134660175585995,0.00564799003282669
0.0347193236220066,0.0655819375039784,0.0144040606628547,0.00554984120281884
0.0340069139372647,0.0440547734786141,0.0187734024032455,0.00570273925237089
0.0203975362913144,0.0208787555729125,0.00807858357615117,0.00270422005333581
0.0213404284612783,0.0137911683339862,0.00686233429164937,0.00224738873759159
0.0168769565169679,0.0165152644168387,0.00744965558328667,0.00199539106575329
0.0140480126962187,0.0156300524709995,0.00739008516076557,0.00178458708357464
0.0246011832617234,0.0225963042932488,0.00954083360182912,0.0018569164814479
0.0187199755076543,0.0166491124913887,0.00716372653617881,0.00232831378589546
0.0174681599475127,0.0208854180244005,0.00831644851497398,0.00197754555235217
0.0230664952914722,0.0225430698281232,0.0095412800164826,0.00212681941935147
0.0215811611013081,0.0204776240734795,0.00836319207141444,0.00251294252266823
0.016402324776724,0.0181824913723968,0.00935537420388798,0.00258494451302505
0.0251292253327096,0.0236471911303816,0.00728634713535226,0.00218083361298396
0.0166636697655669,0.0169232135944894,0.00716608057961637,0.00217235139117851
0.0159555286434582,0.0174497656569603,0.0080199239575738,0.00172647888132767
0.0180417829735373,0.0185806292709825,0.00737744403193135,0.00246869286332384
0.0211085758209941,0.0198898775276682,0.00796569828943727,0.00185361238799186
0.0190404480841189,0.0204060017814102,0.00806971773037219,0.00204324644007502
0.0195727381247839,0.0201521506773441,0.00918124317119735,0.00232401874991243
0.0204658972632334,0.0162013506754133,0.00580279080418033,0.00259164328136424
0.0220570189577012,0.0217923144009069,0.00955872682384597,0.00179576653132019
0.0170033015466283,0.0213566094331261,0.0101547400381557,0.00188853393086806
0.0148872832723799,0.0178326838911916,0.00723991798542594,0.00261372825813413
0.0150215150283102,0.0173939164326653,0.00637339360307147,0.00197785214411605
0.0178031065155538,0.0173592463328746,0.00795585721840035,0.00187439425539471
0.0206599917988254,0.023217932285647,0.0091915767471186,0.00216105153611978
0.0206320581177513,0.016566999398295,0.00926260732556334,0.00209565458457769
0.0164510345578546,0.0181020273369895,0.00652594751043973,0.00216649324279201
0.0159677442181113,0.0204084284332237,0.00733940838348425,0.00182502922525953
0.0181203321247114,0.0175530512877046,0.00872526577599694,0.00226228204240927
0.0161772690272982,0.0153811884404789,0.00850888903505028,0.00171179210769473
0.0155013831860611,0.0182697431698493,0.00681100735647683,0.00231786529445799
0.0153761510833499,0.0183392552981394,0.00720281603155514,0.00223841153104247
0.0166216701325572,0.0192916671589969,0.0107121784856312,0.00201701986527383
0.0157393234476887,0.0175250830977478,0.00747540489962772,0.00186433449874394
0.0139450195770995,0.0176664722722686,0.00660362695133875,0.00202903954484815
0.0159823907320594,0.0173885995191724,0.00689413498523251,0.00183128947024901
0.0149987563759548,0.0171803417227731,0.00655781354912885,0.0020790125615819
0.014293037369005,0.0157707152615248,0.00722230615556994,0.00224173324718402
0.0135309713809973,0.0178810209697799,0.0089138058640482,0.00190366531959982
0.0146754265846018,0.017132779126789,0.00880287000262019,0.00177247226221977
0.015142263930966,0.0162986046237558,0.00852707788103461,0.00195720527637273
0.0189466573569329,0.0219667635729408,0.00986676169339183,0.00226881313052083
0.0139347996033381,0.0184474611036815,0.00798054553321201,0.0022258984463097
0.0141570053851173,0.0154044582701891,0.0100143739758419,0.00206789279914859
0.0189389165912758,0.0206178983123483,0.00899903618693212,0.00227264025503518
0.0201680264019483,0.0211760910419408,0.00757085449034517,0.00170521772034035
0.0146656338696806,0.0187155355371915,0.00630554416624887,0.00226146508661733
0.0181553664250706,0.0164040879833397,0.00792013238763501,0.00206782016969442
0.0210575565648755,0.0214270181770826,0.00857571852650264,0.00233981252013195
0.0160571320948634,0.0150053866508155,0.0106962599049832,0.00221239111365662
0.0174642789819087,0.0170119708525123,0.007577018226018,0.0017892661218808
0.0192052483611282,0.0236340434141652,0.00959137592645693,0.00175089502812866
0.0162015810102567,0.0155139257719512,0.00822032569972425,0.00180709560225566
0.0204536951531418,0.0186458301843977,0.00956314838051702,0.00209151723468042
0.013878006023432,0.0171738395583102,0.00798979912784421,0.00189103794389549
0.0125972111366421,0.0206521884973658,0.00805601186807713,0.00191597265159753
0.0195464761554507,0.0176246817535545,0.00914142252038554,0.00230719089457346
0.0178062829904162,0.0207546192457803,0.00780604586641953,0.00212423993352843
0.0180245273324282,0.0181087273637687,0.00633779807611731,0.00223440509921177
0.0169153847949401,0.0170020543432491,0.00810344949919703,0.00247594897353074
0.0150446033996253,0.0172973190825692,0.00730421990187199,0.00220938976126319
0.0140327719217244,0.0180033297060547,0.00649532998077232,0.00116004606692146
0.0121190498306899,0.0272645711126621,0.00611301999602065,0.0014780296748321
0.00979813375629283,0.0211342352399219,0.00656430694022066,0.00113102816651324
0.010787117403421,0.0273043565707018,0.00580458009331513,0.00117413898487918
0.0104023026288991,0.0229361666597797,0.00630831779636175,0.0011079798538959
0.0105387044844693,0.0183965908049001,0.00620185110333395,0.00109958500720949
0.0114309970539805,0.0218104393356656,0.00564143259951129,0.00105985486233724
0.0105136959419043,0.019114555866762,0.00561133012669425,0.00108884979068165
0.0130445788876333,0.0176628430148293,0.00484269004983126,0.00115530087745155
0.010287934789003,0.0192568459824667,0.00727966780489309,0.00128034528262411
0.0136036960130307,0.020208393901355,0.00711571143516516,0.0013817526820737
0.0116165055692977,0.0320750365216718,0.00543320530159737,0.00126584405190851
0.0125318553256824,0.0311519306572792,0.00556440139281534,0.00102505703330282
0.0111058556439049,0.0333002512292034,0.00570082374900011,0.00135566041827622
0.0130275074311284,0.0232235088837348,0.00571473963111157,0.00108545048770004
0.0107773232103848,0.0220838784427065,0.00636731509031314,0.00115463827319868
0.0107807315343043,0.0313291727271072,0.00622819359052005,0.00110049604366849
0.0131026509844657,0.0237633592318243,0.00585693482036572,0.00120673055949956
0.0115331553772496,0.0218329438045086,0.00726658931082751,0.0010488851265603
0.0139610889676425,0.0261018545342903,0.00569230209037399,0.00115641526502637
0.0113840718399652,0.0254364894862683,0.00494537525448874,0.00122568767367716
0.010667085570381,0.0266707208403044,0.00847691556243073,0.00106536822719528
0.0119428397551537,0.0314420063699107,0.00698460982252604,0.00176150070430709
0.0115277296864265,0.0331479954150585,0.00800224576058256,0.0014424334194872
0.0160622040408742,0.0266569265664796,0.00807321990039473,0.00170874086000335
0.0184138029603489,0.041049968822482,0.00699673718225712,0.00160046480489245
0.021800108114304,0.0474993626170077,0.00643886909463164,0.00163512905361755
0.0243339314838349,0.0409294052824968,0.00530320390284962,0.00166523553797469
0.0205590907429626,0.0643177427047703,0.00521864657694408,0.00228717630771422
0.021143422365399,0.0417686726074832,0.00698663894350769,0.00142178376623984
0.0201431038318038,0.0417871467872634,0.00660399325911805,0.00159952359517948
0.0169969108069009,0.0314206306231922,0.00724093051536393,0.00152031652770862
0.0189401566264906,0.0275382577596694,0.00580694279089108,0.00147765494480908
0.0166605422475012,0.0365898350126499,0.00769424691064637,0.0013993459715277
0.0166641809598331,0.0368699767915572,0.00663030154184281,0.00111069001706545
0.0176823728323196,0.0341904819169788,0.0057274330272824,0.00132551634295188
0.0172012025036635,0.0373520678056089,0.00623287725249827,0.00153530810787597
0.0181527970390172,0.0323111056792915,0.00516820615731753,0.00125226689267788
0.0166486060442365,0.0286194549470621,0.00594958589251958,0.0014166306153212
0.015399209395252,0.0380456268290775,0.00605198077784358,0.00145158624733727
0.0221951184721396,0.0415204913187068,0.0072224389660852,0.00132690898303588
0.0140186050232497,0.0228689942249069,0.0060924557742256,0.00124014513167007
0.022034403245269,0.0355866524093203,0.00585420622170711,0.00117552789822845
0.0160322562714977,0.0343080682131575,0.00603860802039765,0.00120545700919591
0.0120883190501738,0.0332557119550963,0.00746681220740151,0.00188132039705643
0.0154432010774023,0.0299773044718968,0.00861142737473739,0.00141782527345091
0.0135460194639497,0.0199762033404803,0.00938703603292803,0.0012390784148926
0.0137795006466716,0.031437265924408,0.0154461032486433,0.00186039545393405
0.0129171079908402,0.032214361665958,0.0127899511555101,0.00159726559494445
0.0134589407249603,0.0234307307458439,0.0104571634337373,0.00149874712975707
0.0110316329546088,0.0203564414531939,0.0128540908809745,0.00174248896087325
0.0120861158004588,0.0348457169607251,0.00860677859487109,0.00134742992438903
0.0148099398031882,0.0283394292993947,0.00867148991788133,0.00141160106355958
0.0127924193941946,0.0317924318602221,0.00746886383608159,0.00148573973084485
0.0112984610255218,0.0177171372976978,0.00617869765316329,0.00106476144531219
0.0120797741291183,0.021431893696451,0.00774270428591015,0.00108661453517652
0.0146246550272487,0.0264765413084526,0.00952076846028935,0.0015217754393976
0.0168289004439416,0.0363889712267664,0.00853505235050602,0.0019661523513643
0.0128085179308961,0.0213585098218793,0.00650443914326833,0.000984771055612133
0.0115949616112214,0.0275516507122204,0.0082270236597933,0.000990722098710119
0.03263726890724,0.0189044646004166,0.0186857388546347,0.00156190053075965
0.0313621936189063,0.0370637901009814,0.0233282803330963,0.00185656262506947
0.0267670887429762,0.0236425439404414,0.0178042421453121,0.00158938062713511
0.0316421125419722,0.0228510849662051,0.0186675090335849,0.00132270137772233
0.0176299057984658,0.0185816272420483,0.0170349759076141,0.00103345405458565
0.0268993353035454,0.0238684369595809,0.0194664444293004,0.00148993238369644
0.0200406275551646,0.0229486517967861,0.0166157766340228,0.00131425779751367
0.0320673384230896,0.0237412944119318,0.0154303937172428,0.00147936789090167
0.0240194460723467,0.0161899659982345,0.0119132084180186,0.000957398986572194
0.0258674058787816,0.0257537314803431,0.0141668583144636,0.00497496848549341
0.0185175176382412,0.0307016805868034,0.0211398310638271,0.00142451913872826
0.0231193525011567,0.029480620723639,0.0195659568718108,0.0027979772228527
0.0266933342367498,0.0206586750456699,0.0146024426666702,0.00154365713506568
0.0234748152627681,0.0257012927358486,0.0193069148104107,0.00124640168936207
0.0321274358144917,0.0256739442726816,0.0198698928772552,0.00345370873152539
0.0285012064838537,0.0326208405598303,0.0191749817812035,0.00240963344222845
0.0329870004123132,0.0211088127135238,0.0174023758149279,0.0012600023913284
0.0223384962081521,0.0271612354419416,0.0209413081301439,0.00121043344861925
0.0321186857178407,0.0291993262098898,0.0194806507455299,0.00237177769836582
0.0241655616010238,0.029304459265542,0.0152063294746271,0.00131505135918379
0.0289011473590095,0.0270697817595956,0.0256651196189453,0.00209681514307505
0.0322930232362358,0.0226829691847661,0.0192371800619891,0.00155443133946909
0.0319557161758521,0.0255950259058649,0.0290345468445489,0.00181072742410707
0.0255007151590265,0.0293913621336736,0.0192893832087265,0.00204769727190551
0.0215580231960052,0.0196688700228399,0.0176157730083037,0.00118697149589924
0.0282393894926787,0.0230401439381904,0.0156074401502243,0.00104411000182807
0.0185035501770671,0.0326609362414748,0.017554567833336,0.00153450176545989
0.0286662257839814,0.0243969053601841,0.0166405966975685,0.00150949623263005
0.0242162883951183,0.0292396503515652,0.0145454677562979,0.0011981600171393
0.0250865843607343,0.0229887646709457,0.0171685502852601,0.00148393261883342
0.0256013115153946,0.033676521963835,0.0155074502839936,0.00148056722366004
0.0238645540224736,0.0237504958661421,0.0161116352878699,0.00116196395811611
0.0302754839472582,0.024193506906267,0.0170287322828603,0.00156844894665398
0.0313412396177522,0.0254247264135857,0.0173584232666537,0.00131898360526512
0.0264386965201604,0.0219952632107866,0.0147184802891777,0.001553843159628
0.0166639181216687,0.0178979104484997,0.0243357364201665,0.00144208756438205
0.0358807851574498,0.0199063109813875,0.018781930182856,0.00158603777795345
0.0287169435477353,0.0335245963303401,0.0210429491606851,0.00187059093919673
0.0244768452120842,0.0258887140842428,0.0172305777038818,0.00155990887051705
0.0236798435969239,0.022384671815255,0.0215169525332134,0.00146600355511028
0.0299575645210188,0.0188906983091937,0.0153908405470037,0.00164999607380613
0.0281070891709836,0.0221631464038481,0.0164116890292705,0.00140378372402851
0.0207398579049952,0.0208007363952502,0.0141608313327536,0.00112639296003184
0.0316997727598623,0.029654661352803,0.0164803235962083,0.001930882190413
0.024513193827173,0.017394000062055,0.0189799080087031,0.00133110446703629
0.0343334119550022,0.0335227394420078,0.0278455682269899,0.00204545479386608
0.0279489144220812,0.019485360663128,0.0194097092355568,0.0013165204755128
0.0424580155798165,0.0357330424903126,0.022641762566018,0.00160628076573088
0.0240165069301273,0.0244302824389275,0.0192782476698493,0.00114734567919161
0.034281047811011,0.0301408962979128,0.0192101325112321,0.00137136504610993
0.02907456674433,0.0258768693593966,0.0223944554199525,0.00173787213587846
0.0225005079340096,0.0193886251635412,0.0148887832116847,0.0012112309966875
0.0243065035819791,0.026264658407348,0.0171071200664277,0.00142833030785025
0.0252015902487188,0.0248414676899596,0.0205902144463723,0.00139712091062155
0.0304830075876325,0.0321918957963441,0.0194153563931308,0.00130884441294256
0.0264428362515661,0.0359533308701343,0.0220962250398752,0.00186644128729602
0.0374690949862554,0.0230631816795452,0.0215146599675628,0.00162628453955147
0.0279701050259676,0.0268216065735075,0.0199390511268859,0.00154713762114103
0.0402215649962278,0.025889440695551,0.0144165251387098,0.00102453755009196
0.0322302570864473,0.0257032527040635,0.0183735044829327,0.00121638019393681
0.0179822659935709,0.0271317537537786,0.00994852317506442,0.0063269755441143
0.0165034806320289,0.023841078838579,0.011193514450092,0.0029760067958518
0.018406684088821,0.0274445319723635,0.0110247634409469,0.00579546229679156
0.0166822546602483,0.0243419317594063,0.0107835809371836,0.00576359198095688
0.0248793395752314,0.0243487449173135,0.0108062146038309,0.00505003975868187
0.019191351310175,0.0226189680633174,0.0122375213250975,0.00412555482354127
0.0196325477874813,0.0229632257378405,0.0099620175401797,0.0027679804847274
0.0118257849860413,0.0269775789934279,0.0118654921924014,0.0024826697797175
0.0150465739252717,0.0174185733615998,0.0117560344431185,0.00309445616998547
0.0175933871086862,0.027912107702494,0.0107346531572915,0.00282115776641635
0.0189473643601224,0.021815515259635,0.0101702390726593,0.00374563802024733
0.0159501339948453,0.0238383350752594,0.0120100792057819,0.0035749565576015
0.0193489906094653,0.0275349728605428,0.0127073485467758,0.0026483576180703
0.014122991398513,0.0277503578742367,0.0110276996064007,0.00255227183388848
0.0193171467689757,0.0364435498001149,0.0127317990301391,0.0023165280481992
0.0204572967808633,0.0250766364205113,0.0110136899233894,0.00199329441010821
0.0183624618394064,0.0259228810065238,0.00899004677571618,0.00263384752925034
0.0189796166299217,0.0260711782368213,0.00926136980368136,0.0022028081716322
0.0183896901275284,0.0273345582449998,0.012819400051102,0.00232772029566561
0.0183502150012285,0.0279575972925514,0.0129096601700783,0.00263328611101658
0.0161958495977746,0.0266578085649345,0.00897604093212266,0.00210332532105022
0.0191657700092332,0.0261904159195059,0.00928266604748415,0.00249341128219902
0.0157572448725504,0.0335691171202273,0.00919265705241868,0.00189750641379471
0.0189696205010644,0.0294919346434061,0.0116123661834799,0.00288292413975834
0.0174424178012508,0.0238804671421971,0.0113000312978642,0.0024878640114407
0.018786236358286,0.0271120057019873,0.010077706183216,0.00205841886367383
0.0167700582788795,0.0208883484417192,0.0105412970416785,0.00190732756360054
0.0149905193616323,0.026730044835194,0.00914178663555729,0.00243585977245509
0.0172761338266828,0.0247694757036515,0.0110032052887719,0.00258171340139268
0.0179687443126082,0.0247768010334393,0.0113876462200842,0.0022662341481807
0.0198636645755583,0.026207079866403,0.0118493629882645,0.00260228225070019
0.0183597356837671,0.0263893351511043,0.0103031301360976,0.00238639938727452
0.0167444322083726,0.0259717443121368,0.010763155883609,0.00250733358402473
0.0171481582282032,0.0310126467632003,0.0117420839984748,0.00221533915199808
0.0176177828296808,0.0244156248014532,0.0110107070358295,0.00233893506723017
0.0164103766120747,0.0282290135677288,0.0102412528075489,0.00211887576797858
0.0183555941185323,0.0262363523739564,0.00926991292579802,0.00245400706160713
0.0185482867546028,0.0252395914478306,0.00984621121540743,0.00280478470023731
0.0196584299569563,0.0242152570351524,0.00920911407414592,0.00239410297047334
0.0152648987379397,0.0282178650713039,0.0116329566970237,0.00263261821593194
0.0179543132164942,0.0305186657593439,0.0122512438239152,0.00351408477647199
0.019653158073632,0.0337615937348074,0.01122968411214,0.00222371316673753
0.0181175829108967,0.021221262086106,0.0117941166898527,0.00237495661683764
0.0235470202316476,0.0333067573706001,0.0117265850443261,0.00281548975937549
0.0206871879510373,0.027313718002492,0.011726651411954,0.00208498962950294
0.0192700666133652,0.0265743250205274,0.0111210736219501,0.00227668099711298
0.0172247287176108,0.0206957568598065,0.0138989758819412,0.00266907976726583
0.0163586159173848,0.0299565419771637,0.0121912807667879,0.00255765440117864
0.0224075805412621,0.0268100744433506,0.0112713370437825,0.00251262701906026
0.0164145696367142,0.0244264969685675,0.0111199258087609,0.00283912907132376
0.0161377252770898,0.0259519670473416,0.0113989468053594,0.00222644066839371
0.0184156994613618,0.0318370272912393,0.0144878006730289,0.00248415256961847
0.024110406686448,0.0291827715359055,0.0140780192476779,0.0026425774885877
0.0167338778591188,0.0291753547972364,0.0120374696397605,0.00222836861071753
0.0162904355416315,0.0221724978821262,0.0102974317564182,0.00206140259339494
0.0215945864933059,0.0278135041754411,0.00919635078354536,0.00282216022769767
0.0168423371183427,0.0253400487415811,0.011397714653845,0.00208270568803074
0.018798597322814,0.0319112152561641,0.00872769285050381,0.00267139835557911
0.0170709652528269,0.0240390210946212,0.00913843133195891,0.00241725534247617
0.0186792224783553,0.0209170389597597,0.0114694412669321,0.00267328550531362
0.0244439425595804,0.023406248473583,0.00858972896953627,0.00156432097209102
0.0279151838805032,0.018686457831554,0.00895108227739117,0.00177920017202501
0.0244712134123409,0.0200591125109176,0.00996983787705267,0.00200456443834717
0.0262069975658765,0.0299944207442383,0.0133487388968283,0.00183687562110612
0.0283988550275733,0.0227366901768347,0.00675106324153229,0.00188439889762852
0.0260685077031588,0.0288571621780392,0.0113527392096925,0.00194741856997403
0.0255550358136061,0.0279311087158972,0.00903078239471081,0.00190188754876867
0.0235726040453937,0.0205247055885648,0.010925048333933,0.0020202707403154
0.0286745621866067,0.0214038679274939,0.0102601210341615,0.00194094084192197
0.0249928177966875,0.0179442042788503,0.0125037499449833,0.00196763929590457
0.0280832205608673,0.0261340854223763,0.0110583946756058,0.00168591334664091
0.0259093222020537,0.026730532973866,0.0106874168875715,0.00236941775037332
0.0280735012950706,0.0287262727829211,0.0109549209543719,0.00206695309658166
0.0267538185964048,0.0224922547961677,0.0107010028963744,0.00239613587113578
0.023558559639238,0.0245969263806661,0.00883635122083681,0.00152797127325508
0.0265005430776901,0.0194179686032137,0.0096128383261688,0.0021583136085624
0.0274938132703056,0.0236143868267409,0.00992612857861925,0.00212779959401899
0.0266407133404506,0.0240782497616889,0.00754691993606336,0.0017128028668026
0.0274103823379606,0.0253165635775429,0.0104678906848124,0.0016283580585363
0.0280186601253636,0.0211592428286884,0.0101014530546516,0.0018039588254647
0.024831965648753,0.0245236548553758,0.01243767472418,0.00149047688438906
0.0198377485830836,0.0196255934982842,0.0095518105958083,0.00169534471568395
0.0247953289637876,0.0227480500080264,0.0115495441087332,0.00188305384243102
0.0298623104967722,0.0279030741996904,0.0112838992454094,0.00229533127446566
0.0256012644820843,0.031280343120138,0.010443237778018,0.00203404234767511
0.0291696958003893,0.0284673420717307,0.0099322230539598,0.00208125915783812
0.0253813735808518,0.0236095999492594,0.0106891531177533,0.00192385697316063
0.0321924001116655,0.0296156694830309,0.0139572187848838,0.00222143615172115
0.0249900776605208,0.0258755677963307,0.0121651807387521,0.00188508656241369
0.0325130447521082,0.02581418756046,0.0098039848088588,0.00159144407562697
0.0259976003300378,0.0268951007141709,0.0112309746650297,0.0019891136952926
0.0266127399080753,0.0223532679501901,0.01045524357473,0.00174433675042642
0.0235918223031917,0.0261051756409273,0.0125423960061096,0.00174495809550998
0.0244428859273628,0.0280760230832354,0.0102696808099161,0.0017858131115544
0.0210751999505642,0.0214251428130476,0.0102957489233351,0.00173201249673933
0.0299359996138323,0.024684778463759,0.0121393863583977,0.00168541674826389
0.024500282995401,0.024871336820794,0.00896214275342072,0.00175959916519305
0.0251982674547228,0.0235293474281603,0.0110047796994848,0.00153002747491254
0.0284115311789106,0.0298701580361508,0.0111769119196618,0.00197142014276679
0.0349620815249748,0.0264408629311427,0.010819902867792,0.00188350395622224
0.0288275409221807,0.0278469957934929,0.011283278428803,0.00160565365912737
0.0272221495978914,0.0188745779988889,0.0103679677421023,0.00156465849664932
0.0228514152907486,0.0251967060197944,0.00940015180912361,0.00182502619412719
0.0272736623340217,0.024001030500003,0.0109582419996202,0.00182280622316354
0.0296386617543696,0.025707382944635,0.0109713975539895,0.00225477804931895
0.0261876189020532,0.0251707820904879,0.00970690411648732,0.00146155707682991
0.0268827051223979,0.0206717003986498,0.00859983762189145,0.00177229039532997
0.0277473087999309,0.026027940663034,0.00912046839086188,0.00203737146101432
0.0273915514010254,0.0209774291435517,0.0106185253442493,0.00144739827482998
0.0245734160136918,0.0246891514161175,0.011166807171012,0.0019594158783105
0.0269222890580283,0.0210855270870186,0.0102353556012901,0.00178032990180054
0.0242543365618362,0.0247608861244666,0.00886057827764662,0.00152248144200998
0.0298889969409957,0.0345629513336206,0.012542570440709,0.00212523916588292
0.0266086829983544,0.021899845958613,0.00732849557333561,0.00151542462241273
0.0261662747765773,0.0292208219772846,0.00984017444399175,0.00155095802825712
0.0274758052443236,0.0266583497538351,0.00998640034615711,0.00163176760943255
0.0271278015542738,0.026074840575819,0.00990798613558731,0.00158762719631717
0.0234654263308884,0.0251327560024733,0.0124380864982368,0.00154554401705486
0.0247934069901445,0.0190344961009772,0.010413906169942,0.00142691856198746
0.0292566745312987,0.0275818745867525,0.010983638764429,0.001686175647719
0.0182921240441545,0.0512778029008277,0.010724710846403,0.0021269807211595
0.017304403730316,0.0451819461602811,0.0120642539352297,0.00165297718067567
0.0149104012732698,0.0586429642648354,0.0151420322869152,0.00205041863230584
0.0187447195960976,0.0523722505761516,0.0105363002069248,0.00115425564105794
0.0168033618273783,0.0605879093341927,0.0146693988266551,0.00200692739313738
0.0175684658238431,0.047102653067773,0.0163367332016635,0.00206024611468088
0.0190767551814323,0.0561952183741784,0.0136792035686232,0.00123678583234748
0.0149604217335366,0.0580963708961229,0.0134821760751134,0.00189057480205229
0.0167194836072187,0.0447869373407613,0.0103586984015087,0.00177796730363964
0.0180242775395934,0.0424078855739637,0.0117427774981613,0.00157743074867286
0.0186456108652016,0.0475153128458123,0.0128155960838898,0.00138787890579964
0.0171829664363132,0.0470089099995615,0.0116048705607084,0.00157205395396035
0.0150085989399137,0.050405105115688,0.0135910091849735,0.0019575348904671
0.0185267369413429,0.0488006294277249,0.0105954902392431,0.00154768994403136
0.0149663369447519,0.0573304841234423,0.012078473549045,0.00158869355520223
0.0149054482384474,0.046855051063994,0.00913206220920396,0.00144860771388211
0.0170285155571831,0.0520842698235526,0.0129342195980388,0.00233341075710118
0.0168687384605079,0.0580153223431827,0.0142805607562969,0.00187282221336036
0.0212343363360895,0.0494815173654062,0.011322240150091,0.00180095661781954
0.014317159727065,0.0691963088712329,0.0131339525540327,0.00178961911108872
0.0206900817602689,0.0558376860082925,0.0133711643824865,0.00191703554222406
0.0125943698172083,0.0563836636809467,0.0123324607831712,0.0016094383505239
0.0185271620263524,0.0635911279781146,0.0103889562357204,0.00150458180625607
0.0168539504494561,0.0423905442227058,0.0121706524530699,0.0016923058392515
0.0163999463378426,0.0629242784316934,0.0126841802047357,0.0017635356819639
0.0177784754749007,0.0487711601149201,0.0128878945154242,0.00163255531239931
0.0144994088080166,0.0425893353469691,0.0130251047068757,0.00177152237339099
0.0154480362068591,0.0589009335293558,0.0120985748203147,0.00184625366599027
0.0174073470144109,0.0627077606024263,0.0120988613402426,0.00124048998815511
0.0158430491847676,0.0519195748659265,0.0119421492075782,0.00151291955786462
0.018702423301147,0.055640833384248,0.0140952888597715,0.00163461881776199
0.0167800495996024,0.0521437607285834,0.0100905750296669,0.00141118477627016
0.0184225551229961,0.0526868007623918,0.0113578826830431,0.00181358335737199
0.0150381542249273,0.0550857288874231,0.0113866504171615,0.0013745131105293
0.0149937877447115,0.0460992509643431,0.0147889007452355,0.00201628322448979
0.0152509514317947,0.0579449568480186,0.0122644742407133,0.0019014497420367
0.0155535520329472,0.0528862611330154,0.0101067915736839,0.00152820684678105
0.016709055994488,0.0407389957376998,0.0133738819659201,0.00160049056390727
0.0185687842112851,0.0443221347585013,0.011080090299465,0.00153069250251305
0.0142383630550737,0.0538279659623783,0.0121994252091313,0.00162116046978842
0.0172410443553013,0.0702973434677653,0.0118627158286335,0.00141226554770994
0.0150787893410518,0.0580300833401888,0.0100901477942802,0.00159142152607893
0.0139970194391581,0.050040458701437,0.0107213867587414,0.00149889847865312
0.0173620881404283,0.052646797384908,0.0107024844288026,0.00169215110033757
0.0116130337690356,0.0530338668831259,0.0124095779036426,0.00150470474787896
0.0175343740553244,0.0405465331619237,0.0120782001126522,0.0015815790713101
0.0154833768017551,0.051908386276552,0.0124359131274278,0.00149437850718104
0.0156566043813931,0.0495808904833281,0.0102402056837875,0.00165020609164016
0.0153346362237986,0.0458464990269946,0.0128253512850048,0.00123460415217155
0.0157784695223075,0.0481910792063916,0.0109563087937566,0.00153039401453036
0.0160432569145027,0.0531413755454709,0.0108579185336683,0.00178759081805264
0.0162371287945709,0.0461236883671197,0.0128904184273626,0.00128239420170648
0.0176614668504806,0.0443788505376244,0.0104640792995502,0.00126893826280879
0.01724478707827,0.0488124647677375,0.0128337691018555,0.00178641523127168
0.0184200854784402,0.0459080354537809,0.0106090306492037,0.00164934278948537
0.0172269769011177,0.0455786706374634,0.0142288365051942,0.00174035687529124
0.0135271825985808,0.044988481598564,0.0107537622886222,0.00139719580404744
0.0169633009637688,0.0431807631897408,0.0105397655834896,0.00166203388980904
0.0141090629163581,0.0389215302088214,0.0124613675320529,0.00131643716806149
0.0159676116633591,0.0334943134452192,0.0103784820263709,0.00149908069973959
0.0355905335101589,0.0216550662342362,0.0158134094584811,0.002305000974725
0.033547909646665,0.0203657478743865,0.014720817075396,0.00173906702216915
0.0332052627984108,0.0210478607374359,0.0171562420965062,0.00211280000209632
0.0315220506890034,0.0239552770040435,0.0192347143987349,0.00180795212014441
0.0522838125774644,0.0330552710459912,0.0180143805209661,0.00232986736397048
0.0370742333403946,0.0211346873691589,0.017087946780713,0.00242240944571552
0.0335209605336476,0.0280858046907482,0.0162424309436852,0.0026311228665485
0.0426277507064821,0.0220351597353936,0.0301608406557307,0.0032315654659733
0.0438251034996092,0.0276977097396438,0.0227318413861086,0.00231437325535615
0.0350455497661611,0.0273134700348805,0.0180988380440982,0.00257894112997338
0.0314144861328624,0.028805929032473,0.0165339265433249,0.00235066573950244
0.0283763876983256,0.0229329214714564,0.0195959576299327,0.00232280126595826
0.0335802971271535,0.0218343413831787,0.0252086356492253,0.00203715079142637
0.0300979631464057,0.0182419040009801,0.0228565630592463,0.00201412469367602
0.0339654138620866,0.0275857565071578,0.025986267535645,0.0026015120439973
0.0274272150900314,0.0222003984013606,0.0242976238977592,0.00214414624918786
0.0443557260229525,0.0248019389854486,0.0234743214362792,0.00246435500446391
0.0400973165809684,0.0181559244644675,0.0201421505078183,0.00255779848323176
0.0437976505163977,0.0205787245032573,0.0208820832687881,0.00244906793594685
0.0378808738213475,0.0180082756885051,0.0185533272632437,0.00247633004550646
0.0371606722369322,0.0264915795491209,0.0156644165933094,0.00257995086455317
0.0385295740672852,0.0252317738768566,0.0169517413606509,0.00229369638998903
0.0348552206734029,0.0205344634484752,0.0157348085856965,0.00165803161342955
0.0354217218276651,0.0241539316298013,0.0204575013508775,0.00246581273225127
0.0327639268503825,0.0239808300987099,0.0190798664574507,0.0024358226794648
0.0442595770994955,0.025331453131044,0.0179497407675584,0.0021920842087447
0.0237768920590377,0.0212061258092872,0.0189434300495314,0.00226859989322353
0.0376774658269511,0.0246160482877253,0.0195528821869974,0.00215969834611606
0.0269251768610596,0.0246351606308734,0.0168337043504985,0.00190756331670174
0.0228206485445461,0.0259849150505682,0.0231408918176712,0.002042027830616
0.0376084686136366,0.0209412698904349,0.0222679034370675,0.00243271448222157
0.0331688120110556,0.0236341081964676,0.0138465124710743,0.00236160784697518
0.0282174473815953,0.0187989913547602,0.020366789744296,0.00211881057425961
0.0235335910949899,0.0265806407522578,0.0187748259253581,0.00206940453714792
0.032148288517398,0.0317874500638337,0.0199542268094744,0.00240563491095098
0.0329057923468156,0.0273874996728207,0.0150121641084386,0.0024306749961026
0.0268771639055951,0.024482083030536,0.0171318774402109,0.00174900599432891
0.02796116944463,0.0234075158215602,0.0146688526666383,0.00208202218304169
0.0244742290208722,0.0249012858529368,0.0170147509353808,0.00165479939374503
0.0312262275389337,0.0226123621454112,0.0165690604188874,0.00225196789823234
0.0273077689945065,0.0198048240410287,0.0206153395528589,0.00216735649871222
0.0323832312485384,0.0241718454452426,0.0189749768951663,0.00250316665750403
0.0378945243794066,0.0215996228559953,0.0166146614991579,0.0022008422570916
0.0308625476080514,0.0225740123677044,0.0200102855334759,0.00234594390417084
0.0323334269882707,0.0234442030398414,0.0177744890579669,0.00199746125595676
0.0286845598922975,0.0197319564886803,0.019422236228716,0.00181200214729492
0.0300962003076445,0.0230076719965087,0.0191005216367506,0.00211136679074126
0.0310984815985477,0.0233083698323122,0.0265931581950261,0.0024813279001786
0.0243311851489338,0.0220932426520446,0.0200107370318327,0.00229908523799998
0.0309031408776826,0.0274111224729746,0.0178581548003469,0.0026866070502636
0.0323627046932526,0.023414126251236,0.0175426589868944,0.00149127251604052
0.0290900739588252,0.0224631542723495,0.0171109467684041,0.00210055169384446
0.0263902746412168,0.0312862079949593,0.0244227926026817,0.0019955012092663
0.0287730910721519,0.0228098089660855,0.0201165427567257,0.00180054859897348
0.0269235732784003,0.0261482714490392,0.0158617358937235,0.00207519559151065
0.0186171904464499,0.0237835075888127,0.0181253191197706,0.00175265684870986
0.0293520697470242,0.0217772231595837,0.0171758857798686,0.00172665191046089
0.0293649530112929,0.0228193677289229,0.0184360497581071,0.00192169840380247
0.0313630018086121,0.0238613626924759,0.0135521183234527,0.00218491963027399
0.0265270207879926,0.020351661416615,0.0162557761680236,0.00210141609694427
0.0223019598510083,0.0262371910001222,0.0118562222620584,0.00124321934820664
0.0190526039290721,0.0301312682340459,0.0131701769167816,0.00125228638021974
0.0240644748562227,0.0280258197149944,0.0111418640435914,0.00129619583156029
0.0252387233225719,0.0377285618505286,0.0167857068727084,0.00128347233944434
0.0222683775172608,0.0244691800492599,0.0125738043902068,0.00140510376790852
0.0239513970197761,0.0263428433670537,0.0162185940275314,0.00135741490935952
0.0215160936042977,0.0233247349471339,0.0142448035213845,0.0013536634023847
0.0275074870932342,0.0298680412686862,0.0142446879818905,0.00174402570169792
0.025654323889696,0.0268764569195288,0.0144125783742921,0.00114964450551018
0.0181464147559068,0.0223235288327796,0.0122749271930828,0.0012817659471537
0.0282974198929543,0.0314079723644467,0.0165904312272139,0.00187387624360389
0.0198984772908943,0.0312410832966458,0.0114940703941462,0.00115169098871992
0.0243441161342786,0.0300083651284128,0.010942955500907,0.00132510420375328
0.0258276894507817,0.0382404193182479,0.0148109870945296,0.00120159000161394
0.0206628109196039,0.0355337373821487,0.0155389711192273,0.00185270790857178
0.0208194371538911,0.0286118658767555,0.0141961242071545,0.00129612032071288
0.0231961367466166,0.0283186843526401,0.0135771552243955,0.00146819971408621
0.014127420040009,0.021742492039667,0.0112636233894849,0.0012194615024686
0.0189955436485846,0.0293563856156244,0.0110210949621664,0.00123516160034407
0.0240904968571712,0.0245934104417667,0.0132970343044402,0.00099707688055072
0.0250001530321498,0.0213514796789445,0.012370783805445,0.00127660312628606
0.016629327347552,0.0252781346797219,0.012939416551875,0.00118257730685145
0.0221044620922714,0.0197896111258479,0.00958547408992103,0.000995291098103116
0.0236026520778301,0.0256605244788383,0.0132615577815198,0.00110339579343246
0.023253617369713,0.0278312321400267,0.0102470686739845,0.00119343856989123
0.0215107106975637,0.0263139697413369,0.0106210946435846,0.0010444591009111
0.029753574873785,0.0298666258566166,0.0121292572205448,0.00119307836097083
0.0206633042091927,0.0174050879482732,0.00898998259650113,0.000973398797826401
0.0211647415474196,0.027039061830774,0.0127459597104542,0.00108627473808553
0.0162680698985944,0.029812569373278,0.010796180824745,0.00132179699284151
0.0305231436022288,0.0259113638278637,0.0173465748208374,0.00119951759927955
0.0255020813752342,0.0241962259526637,0.0267595876862087,0.00110124744041417
0.0255235972430206,0.0323612779275771,0.0152156589757368,0.000889895713108327
0.023644421598594,0.0288726888151113,0.0207671792640355,0.00116464772064358
0.025784617869078,0.0254230088720007,0.0180177258663502,0.00121137187986484
0.0207026671978222,0.0275669943258028,0.0179222642646938,0.00131383964006449
0.0211645375778918,0.0238318291586528,0.0124603509133969,0.00112740724184483
0.0229446184732456,0.0191045489525885,0.0157995025959229,0.00102445882557858
0.0250338688596809,0.0273045442671643,0.0126622555312952,0.00119628052392718
0.0241177996864463,0.0251943131416108,0.0154770889847538,0.00122777625266157
0.0255035878527651,0.0267848523462701,0.0117980371276404,0.00133387906032665
0.025419909514951,0.0207082559691431,0.0114268339342956,0.00110831078971431
0.0253511611756693,0.0319950766975227,0.0129637503199839,0.00129885501481463
0.0223420717323235,0.0274671303957416,0.0151169623624168,0.00110799180620371
0.0240587555420745,0.0241327447186935,0.0133792984214292,0.00136038839206114
0.0193711402407876,0.0290887612531053,0.012038816834338,0.00140460060519899
0.0169691556197193,0.0258058575472061,0.0140967741692682,0.00114958485226619
0.0176420313925989,0.0185941301605084,0.00813921295473516,0.00128793581416697
0.0152954335505577,0.018809902535138,0.00832288416122955,0.00128513331372697
0.031916149551864,0.0370478364351782,0.0128188846769745,0.00195283863670992
0.0239460082330496,0.0274293983771598,0.0147133133393181,0.00151220470062681
0.0216617943204224,0.0226080400785846,0.0143583026830879,0.00115400129491522
0.0257810877666639,0.0255922787061853,0.0119418891143099,0.00132221238103089
0.0239257475454541,0.0341552077915285,0.0141546703391758,0.00152602347433271
0.0221356427013552,0.0227136509865927,0.0123994714152151,0.00140147333774426
0.0213068165795973,0.0251476306299301,0.0113940053337991,0.00129297271420217
0.0203241613452994,0.025690194012695,0.0116216662566859,0.00124987710529696
0.018337388210272,0.0253155643074123,0.0144944991563845,0.00129848823856751
0.0256815968930893,0.0191010580095463,0.0138782105256148,0.00155950224455504
0.0230460979928109,0.0252060283436085,0.0149227751561739,0.00136686769480628
0.0364435220108313,0.0391318764333283,0.0141045092595757,0.00169905508895467
0.0513693249887322,0.0360101635502651,0.0135009744517225,0.00122016733451216
0.0336751451857109,0.039097591140461,0.0139330317960034,0.00120959480020586
0.0453528271412494,0.0378094679574042,0.0147817038310046,0.00151454503693541
0.0388715377072449,0.0381365986678552,0.0138236998974078,0.00157124989285898
0.0530468088894615,0.0396018957035847,0.0134242088471433,0.00172626551852101
0.0429532292996001,0.0405734958180602,0.0183352415028262,0.00161170703911242
0.0587200801342329,0.0395366507848652,0.013210287345845,0.00165665774868964
0.0477040309413931,0.0409028732288314,0.0104058632789464,0.00151154913211908
0.0365114312261879,0.0356464213883619,0.0132194966772476,0.00149604876955773
0.0466581230703174,0.0375762110473172,0.0149390811567268,0.00160213966674311
0.0347509718447278,0.0333718521899421,0.0138687609075704,0.00153389721587949
0.0513101579120943,0.0361947777078228,0.0122829681270961,0.00118230129693367
0.0402712704077457,0.0376234056378426,0.0132046407097164,0.00188053026504115
0.0554945509709184,0.0400226980674662,0.0126141949912398,0.00137629326411611
0.0400045313287058,0.0341061126155308,0.0111786994037675,0.00145548868611467
0.0436880043776088,0.0353200941146608,0.0116986411053271,0.00173031194649088
0.0410309076458535,0.0371837395978626,0.0120327131966226,0.00155724949177301
0.0315565005670065,0.0429517155850846,0.0137168104460365,0.00153348275033136
0.041806313152991,0.0328594730021314,0.0115281149049874,0.00132685171154334
0.0437991144739814,0.0407665801005691,0.0106571867311098,0.00174459682567084
0.0317129381467773,0.0333269670260656,0.0135683661916244,0.00158284337796109
0.0427064672813019,0.0471621247607437,0.0137747887843857,0.00131827800976452
0.0388336898665291,0.0367258037110183,0.0117317563684918,0.0016101314513398
0.0445348210593995,0.0461360692509932,0.0158093298064638,0.0014635853006404
0.0328049021315708,0.0341490899881376,0.0122040451008342,0.00132065144431423
0.0396055778169526,0.0348157438756499,0.0112885796187972,0.00148416732787251
0.0357895321668361,0.032620159666742,0.0109615702473436,0.00145428190156771
0.037092490540719,0.031857097849372,0.0135433818990893,0.00125293598457356
0.0496066849113448,0.0324870239598526,0.0145384199482644,0.00152116662145231
0.0475051277912941,0.0361753602431657,0.0131034890286586,0.00130200042991811
0.0523800139533962,0.0430503673058683,0.0116302706768897,0.00167921489737136
0.0401618348809776,0.0336124057051472,0.0143264689368462,0.00125749867907224
0.0462110858276735,0.0514210332798175,0.0117400778819732,0.00171965451381178
0.0453337180114462,0.0442881640406491,0.014492441345723,0.00139247308003914
0.0345401182881411,0.0349287901472601,0.0111735460894376,0.00127258144433041
0.0376623562582896,0.0344468269882348,0.0153190169153918,0.00161696088440476
0.0551816423414319,0.0417976551682267,0.0119550928513398,0.00149549486444303
0.0404571777119219,0.0405150750553175,0.0137048172892892,0.00160423438199561
0.0386837291691281,0.0362228082746132,0.0132939890169819,0.00169113428394924
0.0444722459116121,0.0338888764751043,0.0120826407009749,0.00149658538527611
0.0467929272933992,0.0390299816336859,0.0143158971520953,0.00142739296973055
0.0486672389037949,0.0424664103231369,0.0141286050853459,0.00172518790751991
0.0363711303701279,0.0333238597146709,0.0133310299689443,0.00142681668548003
0.0377380606798079,0.0405453162857567,0.0140988832244293,0.00155686183538287
0.043827505798482,0.046143438855446,0.0118890604848582,0.0013355900052835
0.0395520778609926,0.0335346396040579,0.0111610427884529,0.00221352002958791
0.0314104301764457,0.0430364814684106,0.0158255008255607,0.00181633343604315
0.0390935560860646,0.0414282714883411,0.0163871596514087,0.00119921486104226
0.0263493901228808,0.034565285455563,0.0152079766964605,0.00139386028814287
0.0477429171194135,0.0381528063925595,0.0161704798145558,0.00142487514704307
0.0486742820139685,0.0398658889837802,0.0129285978908067,0.00134024155388773
0.0407103364345518,0.0409100732909987,0.0145440719241802,0.00153594027267731
0.0435331802575871,0.0361430626142673,0.0154889083689009,0.00147379603380289
0.0447188914598508,0.0437158543670857,0.0201585711105082,0.00134626952759072
0.0495619245279188,0.0531548830991997,0.01363473705484,0.00152125684682973
0.0479378452689371,0.0464036595738421,0.0183565124469563,0.00126183413332753
0.0473777242460803,0.0410011072158934,0.0180617665392132,0.0016572025145548
0.0473432619171043,0.0444574945733626,0.0197188967987647,0.00167874927449811
0.0488445479113245,0.0533550977120838,0.0151499437608622,0.0017110870899535
0.0105906182722086,0.0181830932607785,0.0127953237134971,0.00184465497932077
0.011696898205281,0.0215112141361838,0.0121298922015107,0.00261041155535296
0.00854957000339492,0.0181042089856399,0.00919227429026199,0.00260209627899143
0.0145477885070227,0.0176092272293287,0.00876133314191629,0.00221701111783105
0.0175650202957007,0.0234570948438818,0.0104198555520015,0.00220670631038754
0.0122383770050702,0.0204338493541678,0.0105604727462834,0.00223995969144227
0.0144874615549027,0.0146026934464471,0.0103167787296062,0.00196515909743678
0.0238216858689216,0.0245902650024167,0.0101671624728115,0.00156246712924
0.0190581060964166,0.0230663132027858,0.0102013859852683,0.00238720729066047
0.0148421188496618,0.023345258309431,0.00958743557208728,0.00253089911151269
0.01192972016728,0.0210631786111876,0.01195558579178,0.00203470629154362
0.0159534929009408,0.0171733984382026,0.00932567195239324,0.00157865865823978
0.0126657302053837,0.0138333706726479,0.0103650213650673,0.00190852819125533
0.014635416978851,0.0179225575018614,0.00994771653617528,0.00185985581941793
0.0106292183049487,0.0147512022396328,0.00855895480741581,0.00160948020623834
0.0119771456179268,0.0153445214510707,0.0119981053528524,0.00164363481153584
0.012228660152123,0.0181793826750328,0.00973026109683648,0.0023485047685203
0.0112779896799185,0.0212502114622868,0.0109030374894291,0.00285509213708058
0.0115783662630982,0.0214205766244463,0.0123779318866407,0.00254036091297444
0.0126642247672428,0.0188362456827599,0.0144549200822314,0.00232640635487175
0.0104957970428715,0.0206252441934979,0.0127541836112455,0.00289794474274238
0.0113779876435081,0.01969441475606,0.011799058583305,0.00248063444191578
0.0116333227863769,0.017306110815068,0.0111515072899515,0.00276646428479667
0.0119795726853237,0.0170965472872554,0.011715245094715,0.00181899968383125
0.00956166148679647,0.0137459104969715,0.00750060850203351,0.00168585371803325
0.00876755658590914,0.0171979176466198,0.0130038802493912,0.00222080433488938
0.0113758843708502,0.016112576191489,0.00974105358150566,0.00178735404538324
0.0147764317769208,0.0171340255490545,0.0113364954176696,0.00179418733094219
0.00926142574738819,0.0151913627512073,0.00967387753979091,0.00138599455044794
0.0123537126688235,0.0175216941308519,0.0114497483518817,0.00208187413569797
0.0139839271562448,0.0140777140927457,0.00984721315408647,0.00189428054753709
0.0110075020081464,0.0135359016441354,0.0103307855293418,0.00167530699774561
0.0132178760856652,0.0149012950759784,0.0110602841938772,0.00173519376023345
0.011963138028731,0.0156575464548363,0.0110437686558663,0.00242634896154842
0.0184226512224475,0.0155104793059841,0.011988199940775,0.00159430717557553
0.0130822206085676,0.0148794113768075,0.00894307432431157,0.00166585064037184
0.0132722325659717,0.0186661875532992,0.0139168486074706,0.00178489997109553
0.013752709418363,0.01550688692717,0.0102966535773097,0.00161311613208184
0.0100223307007046,0.0196544769759437,0.0100137938190219,0.00201111369618163
0.0098570841457279,0.0176860284144006,0.0119647165746893,0.00154035896088506
0.0124403228814827,0.0138850118065211,0.00810032537238081,0.0016030153015099
0.0124520444550771,0.0190985485084126,0.0117410792841686,0.00160857747012708
0.012987712988853,0.0139487301438389,0.00723542699569812,0.00171444293018591
0.0115977074105078,0.0166372075422956,0.00902429348507273,0.00177478327387024
0.0127391769226322,0.0139840954032399,0.0113297704875896,0.00170929642364825
0.0141984516208303,0.0175006061286958,0.0105559661392215,0.00185397731377406
0.0116486657037896,0.0159607699739015,0.0101620719400471,0.0017026133343295
0.00850426650849289,0.0141594662536255,0.00987984840573156,0.00185905526843813
0.0126370400020744,0.0154594428917815,0.00880474761715793,0.00174211982748416
0.00906827269551749,0.0150870972390631,0.00804387261081344,0.00158558729067119
0.0117835470164763,0.0201503618327821,0.00876759052692395,0.00144654413984325
0.0143869839462938,0.0152941298998909,0.00859490057035852,0.00159071357304874
0.0122193710835998,0.0144879824328837,0.0089287997860635,0.00164650018368043
0.0145611151942106,0.0143953332936156,0.00923989318529489,0.00142757013445376
0.0117855191083353,0.0145076391162601,0.010726201383512,0.00196942857832472
0.00978806252166766,0.0159731825665964,0.00930570014288191,0.00146865406544645
0.0123003847582667,0.0157387964756817,0.00872102217045049,0.00178583089728521
0.0116135527876437,0.0179088633278923,0.0134618224879942,0.0018592537447884
0.0101133915501526,0.0175907935129241,0.00956484095324213,0.00159577436167208
0.0122322502980129,0.0174705738838506,0.00999748104645487,0.00136664097936878
