0.0147642078522301,0.0336878606437027,0.00929685404984763,0.00207601964470269
0.0165938909592907,0.0362637622152275,0.0078588910193899,0.00204815188712489
0.0138559324791008,0.035731606658386,0.00994809289831996,0.00204760390239662
0.0120728509847806,0.0371661248774459,0.0096461295074227,0.00199888586896689
0.0143597719884001,0.0430276476394421,0.00972625666196989,0.00187238482331019
0.0112512596938416,0.0318577605990714,0.0102024565957351,0.00228003282193681
0.0156986087404753,0.0371661391493383,0.0101497533644386,0.00189776845473824
0.0144368112958244,0.0353364294598424,0.0139715856652095,0.00331770107945895
0.0160239401417869,0.0393558842392456,0.0127934300374616,0.00291329197282932
0.0142837404537783,0.0392768976437348,0.0148983892976152,0.00754190127734061
0.0222743190470379,0.0484145033807554,0.0171698697607768,0.00633885749915101
0.0196097350121398,0.0281152475798174,0.011713046910704,0.00845249148462535
0.0296907539867233,0.0413951078934111,0.0182495891626815,0.0084799990193767
0.019407574298619,0.0371808679546931,0.0169119191390479,0.00857876872725148
0.0251492015985421,0.0335680168265631,0.0146939684999797,0.00836756279499171
0.0254921713394639,0.038665325705328,0.0163977570899321,0.0069368988858302
0.0265421919915575,0.0395602339417428,0.0130463617807181,0.00803712934822593
0.0319378862912446,0.0469816310922193,0.0134249104270031,0.00701302020073437
0.0276052608571211,0.0363415818544671,0.0212388455899583,0.00884684446717047
0.0234572331799316,0.0399293536873785,0.0164374354191058,0.00759066235153718
0.0398760810663732,0.0405945860181018,0.0167620426498041,0.0107279695886998
0.0316861352453208,0.0400555313136145,0.0131242830280481,0.0119593911590808
0.0335597140229474,0.0483822460908913,0.0207276248540984,0.00927607827381293
0.0351070033606355,0.0476279286823481,0.0202719030718971,0.00964377912865197
0.0323839750262587,0.0327208422391927,0.0166169564305142,0.00822632370700888
0.0311331237319714,0.0385603013248272,0.0135213638215534,0.006410517685125
0.025900430349905,0.0401702813337309,0.0153249535044144,0.00814343268200494
0.0234291368362982,0.0362536296072567,0.0147387749331232,0.00837408723856824
0.030502372423831,0.0336633034632303,0.01873597549172,0.00641637837427644
0.0324150204792057,0.0378146177323206,0.0144223511449271,0.00655987875793756
0.0279224845401778,0.0357534703276396,0.0145103892695995,0.00603983537933219
0.0233854942134705,0.0300676880728708,0.0117115395058545,0.00602503656207708
0.032948869800799,0.0384248193928444,0.0165808495029528,0.00702041114593536
0.0300527599399056,0.0404847402905595,0.01743037684075,0.00662929645606392
0.0295002906355938,0.0321523310723387,0.0140164181657917,0.00467856144617431
0.0339233001062394,0.02938521815641,0.0143397801804194,0.00639526310334633
0.0360085754418074,0.0378529737106647,0.00769717056486528,0.00839451182216137
0.0390692019630802,0.0415931217406146,0.0108451686165834,0.007428078279226
0.0273918845099274,0.0449374712999205,0.0165778364125188,0.00687478176396455
0.0278488483926685,0.0390944705971395,0.00976810578257975,0.00603490296714053
0.0265286754092461,0.0404291235207324,0.0128161356080229,0.00574906481314613
0.0285079234213397,0.0369015455590904,0.0149029655953096,0.00454713706894748
0.022998045252694,0.0453456421371242,0.0157420827430603,0.00443182088479247
0.0360791127383066,0.0651959813608897,0.0163253044375135,0.00516289702409355
0.0324605778473416,0.0275264622774126,0.0182626824905023,0.00589996442304899
0.0447926747505166,0.0385093756652509,0.0137967123672457,0.00512131305949746
0.0285993465030876,0.0467475706972943,0.015202487143288,0.00451052853621208
0.0283521951315973,0.0473380587580854,0.0105646519124222,0.00491650348180752
0.0311708945096782,0.0357624513487985,0.0124189003177329,0.0056208960250104
0.0291925225066033,0.0388751158196347,0.0163043042095,0.00432021494704584
0.0307958248184641,0.0389282367298417,0.0121596878391302,0.0044109102655235
0.0283768814793155,0.0369058659743084,0.0123765448909712,0.00504838430202569
0.0246865221542978,0.0352013256123981,0.0113562951718911,0.00432667810757409
0.0285516445983122,0.0397713368033142,0.0167673314042527,0.00515548376862236
0.0281295141945055,0.0356910559432613,0.0125272480637829,0.00351588489399349
0.0288790427688933,0.0405827483468366,0.0140679747910509,0.00590985742951641
0.0280721792974854,0.0354989604149021,0.0131292139533183,0.00446374124093141
0.0313025608670025,0.0275732428453192,0.0161476486165411,0.00477304734591711
0.0322559877027526,0.0494310504863603,0.0152113431071807,0.00349548581857348
0.0378143419784346,0.0438105979948763,0.0147508318608656,0.00277728172354623
0.0283631713366312,0.0240564081048211,0.00789259765314948,0.0108288370266764
0.0231426641665344,0.0278453663323131,0.00704569558838349,0.0128144891546752
0.0201820786919715,0.034810669849206,0.00746680652605893,0.009534170273111
0.026827328070075,0.0251954158955609,0.00685670382835906,0.00890946627485373
0.0264017625583133,0.0333048647154157,0.00829778805572735,0.00912805942129072
0.0240668183695358,0.0248377968970367,0.0071715392315819,0.0101314101061714
0.0221349188328791,0.0284450191946557,0.0074322637082064,0.00499108056361911
0.0277121978516589,0.0259301750611571,0.00750980435814762,0.00844523054268678
0.024618920624735,0.0325310131051502,0.00696678554267001,0.00958305630054346
0.0247579640171925,0.0187122341146076,0.00582186617264295,0.00384816137728804
0.0380102605699993,0.0369277936562555,0.00890878729441395,0.00634683828613526
0.0322104636723251,0.0405978325278502,0.00964112386271511,0.00566838406484684
0.0330719528126033,0.0349308775855273,0.0081951515295215,0.0066253611967175
0.036932311183207,0.0502644568976419,0.00951985562559848,0.00555210006572254
0.0572435440003485,0.0685352263611556,0.0142892773804669,0.00620930191598645
0.0380871617661139,0.0568892367217298,0.0103882200447679,0.00682963371983972
0.051211280560703,0.0523440147618592,0.0118658308521238,0.00594386429027456
0.0448941442153302,0.0590718132751021,0.0122842639440046,0.0067610985389365
0.059057567523409,0.0598481470367826,0.0130992314944917,0.00623698876025767
0.05403577212138,0.0573745490704375,0.00955794432836857,0.00665846848296184
0.0437554709820213,0.0496637444481012,0.00901015967243206,0.00439235188069313
0.0492887533042576,0.0495268783299426,0.010256502180821,0.00648034257535292
0.0568284215546987,0.0553186377670664,0.00989520222594229,0.003888408913071
0.05904141526191,0.069514733733951,0.0126063046007962,0.00570393700720124
0.0454902369733949,0.0562099821460364,0.0125711113265044,0.00436305677417526
0.0400502330264289,0.0604973360486904,0.0131291049735411,0.00410231678717123
0.0573257310105586,0.0495355562770406,0.0086626996942473,0.00440509745271099
0.0508546834855888,0.0403434595909944,0.0132758304073752,0.00508341225499976
0.0511272712488652,0.0595097209519175,0.013303127249742,0.00447116789801107
0.0380264424625934,0.0702491225283254,0.0108653577828361,0.00603497415504933
0.0555925038920085,0.0573984172974394,0.0134001180322133,0.00501714777682001
0.0472354014993745,0.0560704255152433,0.0157544135060221,0.00394046120320337
0.0387899877545709,0.0489863424582974,0.0109931080201083,0.00463407653914374
0.042201296548039,0.0525832271053622,0.0114697013561245,0.0045904643964727
0.0422635819765762,0.0470583689026506,0.0116876899324271,0.0045089526238423
0.0400947611852029,0.0591465607369785,0.0130138359804069,0.00544864741774247
0.0394005927767543,0.0434065455878927,0.0109196814347322,0.00476006460020264
0.0348342667946301,0.0615148566377831,0.011100052367689,0.00488871565783525
0.042912671632469,0.0513659417513447,0.0120705785134604,0.00469466300393781
0.0363303644640371,0.0554790352216003,0.0107758204982692,0.00367080080844505
0.0341193879755024,0.0517990767215219,0.0104879118570844,0.00411076888707649
0.0374655602739028,0.0479687619611408,0.0110692972109909,0.00480390458920038
0.0338950070606895,0.0556982350805851,0.00961626052381441,0.00538803141331403
0.0466782820829027,0.0546873751759403,0.0117866211044648,0.00434823384785446
0.0304106791978776,0.0602135523704526,0.00853830275043971,0.00621584568801429
0.0364412296277713,0.0460543105454107,0.0111392777952007,0.00547691635398734
0.0329680397459316,0.0437493303501972,0.0115695185186656,0.00462336875440203
0.0515091599735018,0.0522232381623579,0.0102201995716253,0.00457281771262928
0.0436807948047946,0.060856803839951,0.0123904666477826,0.00417223531903971
0.0353949578829213,0.0613417923433202,0.0175627688519325,0.00472115086204553
0.0398183206470464,0.0464487382819253,0.0173464693344716,0.0051014506225004
0.0415110719332337,0.0460994585126204,0.0112089921678277,0.00507494775533336
0.0457774047526256,0.0601705498953777,0.0159887405585412,0.00434325266760542
0.0398170916321917,0.0501843125546479,0.0107125838567802,0.00403790136803837
0.0383792389186095,0.0580357212090918,0.0114139787288,0.00403861317337553
0.0391782175908336,0.0579040558162754,0.0123220047833566,0.00432764201433023
0.0374317329729211,0.0354458510952111,0.0120989889598619,0.00439616463100162
0.0303933531992817,0.0529890492733314,0.00854025780578687,0.00389919786886532
0.0409213337182431,0.0507067560750423,0.0122387253256186,0.00410603690772666
0.0403726454972293,0.0643328295259953,0.014410777690459,0.00437277777805695
0.0321007554791438,0.0934709424730017,0.0143452699950855,0.00706026754526119
0.0342413394157544,0.117119099237305,0.0135315613760475,0.00696811181399098
0.0328343171838316,0.0956161283339682,0.0130432599707839,0.00777624355632113
0.0315402165441036,0.131244460104366,0.0153663423120245,0.00369325994022618
0.0249146405482652,0.0885748637309403,0.0162340518709496,0.00437311494435063
0.0306710193012598,0.0804108912755953,0.0115895667721319,0.00465779896806167
0.0337423957389561,0.0863802064028978,0.015587755778378,0.00526588065909412
0.0291892464902755,0.088323475779474,0.0325958706455204,0.00473694345590241
0.0226821654667344,0.0951471053381099,0.0253279176815496,0.00550677587365828
0.0324732562632244,0.081498093230949,0.0163351867845166,0.00687890606193063
0.0235837035869005,0.0809543136183532,0.0420935642507881,0.00616753304066708
0.0458846645331443,0.0687437277679863,0.129006084393137,0.00856852129876523
0.0296154415762016,0.0760215550272125,0.0921698866111982,0.0116982542912
0.0291971143800287,0.0623860272849787,0.0438575888643097,0.0106337446553668
0.0277640203214878,0.0670579363659573,0.0202825343793441,0.00918026331788102
0.0259535292434403,0.0731305627224862,0.0255763097468795,0.00466312138568202
0.0258499833821526,0.0623086292477551,0.0166511861655981,0.00562920949197027
0.0242747319818916,0.0645966571644191,0.0311808373314556,0.00790491259659393
0.0305258633322074,0.0683496574010259,0.0300682185997212,0.00828261703056449
0.0373753679594632,0.0867276614125323,0.0328166634293183,0.0091863343907218
0.0339739902335986,0.0728753801425677,0.0198559078270983,0.00876529122420114
0.0365411557965413,0.0685266829790803,0.0131207509151845,0.00953459926271396
0.0306178530389303,0.0672221667400721,0.0106928225697577,0.0109475162466279
0.0463451507839822,0.0681228007126375,0.0135217894168749,0.017565504511434
0.0398396858508849,0.0657717771224695,0.011803842985817,0.0122650880873631
0.0393409477972578,0.0758262654171579,0.0136711279106231,0.0123981392366532
0.0429212271602132,0.0657354934228953,0.0128154058367635,0.0164010535854732
0.0706687445453044,0.0994963690342092,0.0146322962290622,0.0172935025807854
0.0607090954273704,0.106671464505464,0.0193480530824941,0.0167494995945353
0.0575362467674868,0.0964324127354618,0.0177084386626051,0.032169895626183
0.0774190700407937,0.08921187325189,0.0206341977434807,0.0275350444211113
0.0627468033636457,0.103884826430635,0.0174499254874558,0.0323704319664191
0.0594903452678351,0.0996546597815058,0.0148477996425821,0.0340022793259008
0.0753070676963943,0.112337458057335,0.0192301988092053,0.0394135396740703
0.0627916480194874,0.0982371469920257,0.0123953462573993,0.0255059037962434
0.0636738593697897,0.119429709255325,0.0186810090768853,0.0382547107063293
0.0647975427907711,0.0754765127259051,0.0157867138930832,0.0299721172953209
0.043458892207234,0.105318643126954,0.0130997776533581,0.0328051341430235
0.0444578670836164,0.0913524448533981,0.0130374858759041,0.0293949100828792
0.0555440813267646,0.0887511985512634,0.0162474846540639,0.0386671696839267
0.0487017526384348,0.0859362984722485,0.0175528495362038,0.0294852214675332
0.0574549103179742,0.0969291242596214,0.0129419150743928,0.0211313612813843
0.054303398642644,0.0821946462171129,0.018498178341939,0.0273381349845256
0.0441554899909392,0.0898449842329689,0.0142747821650138,0.0293435584282532
0.0548426024903954,0.0837063070252518,0.0157231086194567,0.0235084458166548
0.0588557763961426,0.0754641436126542,0.0184600809182355,0.0220626314468174
0.0482108501292309,0.0807175323259601,0.0105469116978079,0.0254051041302577
0.0547527912179265,0.0883528526320074,0.014200462942731,0.0254919642842715
0.0505258945873906,0.0810540871396218,0.0122317823894238,0.020876361300297
0.0740824549924106,0.0970565129489006,0.0170801306429671,0.027718421516708
0.0532244136379335,0.0857854093715989,0.013972065058181,0.0240498372298754
0.0605616120833666,0.0968307468156296,0.0168111532303831,0.0247556251948907
0.0540142765389004,0.0705512537799047,0.0127864754116434,0.0227772726979617
0.046887494161084,0.0684872390099495,0.0120687137396371,0.024127095058162
0.049914498333232,0.0816759186340483,0.0163297324419674,0.0240249220536626
0.0440664110151164,0.0649924450178079,0.0148045122568707,0.024367878778123
0.0579279739128304,0.0783172180309117,0.0132456978431846,0.0220737680210493
0.0457265958943973,0.0742864090153431,0.0160374609339467,0.0236350498903905
0.0566091259205,0.0855758124672291,0.0116336284763165,0.0264017021271551
0.04284732045003,0.0727687412025582,0.0128126638349362,0.0262917359258561
0.00677497479227674,0.0218003134180707,0.00622501864874084,0.00348145594964737
0.00818815075022079,0.028089638976112,0.0088557781118531,0.00319495193996269
0.00653532561410907,0.026280551950301,0.00808136812296614,0.00363569705652142
0.00757655018176952,0.0187875448099384,0.00687229620941959,0.00410287010154276
0.00643126574770923,0.0194790311475066,0.00777038876869733,0.00459420951232515
0.00810975218612347,0.0182065851489483,0.00744007696159871,0.00374323844157394
0.00695634068321581,0.0291309386388754,0.00762496166784137,0.00377241044493038
0.00622798661276211,0.0232972835777623,0.00756219100463913,0.00396290847033273
0.0102448665839421,0.0288600568984425,0.00777680282376651,0.00462958781898226
0.0114728994451467,0.0301589039620551,0.0121710963487687,0.0107621146151435
0.0123221215423069,0.0258947288545682,0.0096786749678335,0.0151527115723736
0.018132882599888,0.0393134927623967,0.0121350602191008,0.0163253985491956
0.0455711548863341,0.0371006505650301,0.0156932008791609,0.0160116556718325
0.0329841275013278,0.0429030902163298,0.0132114248437074,0.00965371400606949
0.0218682237656474,0.0503034843068712,0.0129986478490507,0.00801652666568565
0.0167435809079223,0.0483299572440184,0.0118504743492773,0.00776627272356435
0.0201839771091236,0.0461435352029149,0.0105902075126255,0.00563808951125321
0.0217969761400143,0.0358340358993822,0.0160853644319224,0.00464295880885585
0.0167884994952759,0.0442751149839146,0.0144824173766776,0.0037173448370223
0.0115542948364146,0.0370008909206076,0.0129124199227872,0.0034061089750201
0.013896922489197,0.0254709634394034,0.00853011835124638,0.00375494470088866
0.0166985401099277,0.0342695986067457,0.0087845729463768,0.00410042237037769
0.0120738875903151,0.0347281089739258,0.00738805761569517,0.00573875464341517
0.0164783314219787,0.0424132926546713,0.0110306598089197,0.0035189359382772
0.013533806616962,0.0307033039043791,0.0101742952611284,0.00419633658287771
0.0142139718733849,0.0318234430574833,0.00933362060889493,0.0041766584427345
0.016319575502807,0.0344793712532985,0.0110040621172961,0.00437705743324996
0.0143482446595896,0.0310721301710848,0.00940517788585927,0.00457974658419734
0.0124072949234093,0.0308901097546315,0.00868024689658164,0.00491053427044067
0.0145639928334781,0.0335089497352064,0.00710695627230594,0.00251096753552492
0.0118990090602826,0.0282470309282674,0.00756291332476655,0.00318019192100294
0.0119038924968877,0.0357366225606729,0.0101569492812348,0.00301820693158852
0.0125458354875778,0.0311965171303721,0.00822536737889927,0.00499084400374197
0.0105137549214702,0.0322668033184984,0.00853593846843917,0.00371988333134021
0.0152497822073034,0.0365474951311221,0.0105268902255734,0.00496750906626767
0.0124098188870145,0.0341980811009931,0.00969967910173374,0.00387013309414553
0.0102485670556059,0.0419278938006702,0.00815960846882616,0.00411511315447307
0.00828995601846195,0.0319178901414569,0.00886082020844719,0.00417186044474687
0.00997565526914713,0.03265126785695,0.00842043494426924,0.00374709302977529
0.00972509099849521,0.0385013309002696,0.00863799425452948,0.00399414282527553
0.0190353633697714,0.0468677952459243,0.013603850871215,0.00673812158462344
0.0116750204164227,0.0313551096711862,0.00777206621833961,0.00622008319794769
0.00922161241774031,0.0334752888093622,0.00907514834430817,0.00580633631838667
0.00986787041598914,0.0269315544732975,0.00725661606087824,0.0036739594930837
0.00884106059544471,0.029591278958157,0.00855165139210979,0.00442965751934328
0.0108999203757547,0.0400411203673152,0.00825420386989183,0.00384476075082059
0.0104462429421983,0.0292305911113398,0.0109206108745165,0.00443772784323153
0.00876599056973038,0.0371043318280463,0.0092360806547114,0.00509296659624482
0.00947477023702851,0.0384909712410069,0.0101256946202448,0.00536053173200189
0.0121295187938085,0.0337422008578814,0.00889301113723288,0.00446347849613426
0.0108075054659909,0.0317132311541493,0.0116173558546427,0.00644675400772368
0.00927543440700308,0.0316743114652583,0.00750587823566643,0.00425204429810955
0.00979054017829877,0.0335797023059978,0.00832023615195264,0.00454193941743498
0.0104094806706945,0.0367071603493807,0.00746537108059901,0.00425876779695558
0.0165892447445663,0.0271934115014946,0.00979403760344476,0.00345706026387969
0.00944966053019755,0.0344568456181855,0.00893094710157517,0.00374996767816192
0.010597814346705,0.0310005029713438,0.00844670746938954,0.00438478002045355
0.0127923601887883,0.0307544197673099,0.00769528180961296,0.00410691837671876
0.00912095269706364,0.0322611491530258,0.00849583905818994,0.00441832245743453
0.0115961597024976,0.0307426733343689,0.00807554373356831,0.00500521101814059
0.0349120238830064,0.0250334837420243,0.013371215251145,0.0198782852459094
0.0470666381536396,0.0339017121970237,0.0119452462430008,0.0247465684561936
0.0447543740020901,0.0318729279294813,0.0136383719113763,0.0189924134297169
0.0311360568923727,0.0237802211354452,0.0128949079631076,0.0228656803874266
0.0331056650992801,0.0290261207986626,0.0132710217082282,0.0240546755149898
0.0388890744123352,0.0235883219890719,0.0173740366042892,0.0185129162146709
0.0413688306053031,0.0324611204490167,0.0151835695048328,0.0228798682897449
0.0548115673607994,0.0285043062654913,0.0118554815762348,0.0338821832901833
0.0650838425676941,0.0411772391292061,0.0148005233449759,0.0360936609204362
0.0718593530537014,0.0467899058523394,0.0239234474276107,0.0700051203416257
0.0792009525916017,0.0491307865721687,0.0262470323404471,0.0644504694380847
0.0903518175247168,0.0422642163508121,0.0321547677199494,0.0903379446240689
0.0744233213968571,0.0482076930154707,0.0265180930087133,0.0491827057160816
0.123313762440011,0.0796658858906484,0.018512074794497,0.0772769050375447
0.133533215731629,0.0614086355561573,0.0245223185392297,0.077939152711141
0.11428941382364,0.0605831251109467,0.0304142911968231,0.112063979928949
0.113123909554256,0.0496076207764862,0.0328258631070709,0.0749962263708907
0.118546957039179,0.072251837422306,0.0451777049876695,0.0929235293868399
0.0723832399805863,0.0537068919302049,0.030462531427484,0.0718496409314725
0.108556425263925,0.058733677405101,0.0191000783470576,0.070578078688019
0.0809499875060837,0.0548142985629448,0.0260984277242619,0.0601513400597345
0.110036043448546,0.0638007912154249,0.0302620709380059,0.0893319269901412
0.133595565627313,0.0669233376663617,0.0157948457056562,0.0502720922427745
0.132421160759914,0.0659606507446447,0.0274910953023861,0.06271733843616
0.102940986760525,0.051094712851491,0.0157256774309245,0.0606129262260925
0.123237702704542,0.0613124377896633,0.0136376811899292,0.0248158541842419
0.0982208244869642,0.083370569945508,0.0169366199836903,0.0339906143376976
0.104240943795277,0.0515943728717482,0.0132137687700286,0.0448213433182524
0.0853503494060721,0.0564680578430601,0.0114476530315866,0.0319228536931248
0.0751840256149249,0.0532921369765112,0.0161774005726765,0.0323165200394001
0.141122057258773,0.0582509106590244,0.0170735383653227,0.0435623415573821
0.143637026194288,0.0819255099923204,0.0186691414966833,0.0392404140798716
0.151436289284,0.0616420292153473,0.019190274050305,0.0340406842016837
0.0920402961607775,0.0458432240006566,0.0158227139734809,0.0489253984085039
0.113929720559292,0.0565952844897288,0.0196177861954391,0.0553375210225251
0.0989366074724354,0.0506509873827551,0.0197082934509406,0.0214949801100662
0.119129313806227,0.0760226198478852,0.0141626674880209,0.025959343693694
0.100879099556768,0.0475391465118889,0.0140762302815153,0.0440337950638847
0.122697626981282,0.0698431787584552,0.0204427954688031,0.0726032217548778
0.0819249598986028,0.0850828698965076,0.0291922913669217,0.0411976838428975
0.0822826642791253,0.0517643561603163,0.0176662095888018,0.0313544419105402
0.0831440196294268,0.0528427600892756,0.0152151586480332,0.028891791421051
0.0915470386009279,0.0676088683028939,0.0227771254385614,0.0420528111026328
0.107350271974375,0.0468457112034923,0.0138844577963782,0.0237686036293184
0.0946086102210208,0.0468542587069813,0.0154741901172414,0.0299391234755687
0.0923230899985567,0.0592892930290795,0.0158989279018066,0.0197644278320972
0.104734580037534,0.0343369767316528,0.0225318537945366,0.0158612291676675
0.0843196298163123,0.0624887813929361,0.0108069000480054,0.0163702236730367
0.102186021029636,0.0511819208964527,0.0142314652985974,0.0191257087360718
0.0667267258916208,0.05284186581147,0.0166396271271092,0.0176286504828545
0.102357622695727,0.0505143810771547,0.0120323006232529,0.0110181328562753
0.0867234484200654,0.041607507529404,0.0144634281635563,0.0166628782252064
0.0843547727796297,0.0645281211228287,0.0105832834767579,0.016774400302519
0.082050557866588,0.0532296048507799,0.0105162352766273,0.0263540326849818
0.0986089270396678,0.0502954668444512,0.0128919134477564,0.0200394578837314
0.0909853929085314,0.0492417248795229,0.00930693674706524,0.0223799405863441
0.108252211704434,0.0560980097707871,0.0111139694657775,0.0212801483517892
0.102002346514467,0.0646635045334001,0.0102226202016263,0.038549932462076
0.0968750828586647,0.063499477006484,0.0111714196940451,0.0329610997900827
0.0919188754380727,0.0512302919990308,0.0125256125588332,0.033835655812743
0.0461588153176916,0.0710709489922137,0.0132214257209597,0.00485062364183191
0.0347652057068889,0.100499918171014,0.0156197730941802,0.00469131283104736
0.0457608202094478,0.0947144577854385,0.0145738055672027,0.0065610053016473
0.0629410327076369,0.0685375581987815,0.0135571642933195,0.00420920825784289
0.0431432586158345,0.0611214658828679,0.0119854076540371,0.00466055022962379
0.0458230897723641,0.0714585321548264,0.0121541071317449,0.00498831809235113
0.0369674038746401,0.084874510765177,0.012442053727281,0.00403395707304404
0.0451523392380977,0.0784928549426884,0.0126542047564976,0.00597494726594747
0.0405928334549758,0.0706079133024462,0.0125047717145536,0.00552303891952676
0.0368396079626777,0.063369233848981,0.00909850222750495,0.00502524662083243
0.0328961544335992,0.0664565778380839,0.00965594242102337,0.00490362657143832
0.0456463454304747,0.0725229617823972,0.00974191608600396,0.00675375296545438
0.0417709257898507,0.0740562904232056,0.00963145865255405,0.00789837129344287
0.030064460084427,0.0716438538898989,0.011007286195173,0.00545172434459777
0.0517746463647772,0.0977457544045608,0.0142361034450275,0.0100410492407633
0.046283797407697,0.079105921786937,0.0131806904089814,0.00681803296379843
0.0414744718795949,0.0693164536178531,0.0132083467324693,0.00722780093898867
0.0532705183416785,0.0833100403854603,0.013076364387386,0.00879097568524917
0.0513977060882013,0.0900073120600461,0.0127783539617907,0.0112281227391478
0.0543752002631755,0.0898396074378105,0.00953678816835223,0.009704196516493
0.0443933213588898,0.0717302588709464,0.0128528580115852,0.0136961925984672
0.0442663803152909,0.103886062814457,0.012473387509711,0.011485232395218
0.0558515472151345,0.0840134624713277,0.0167354152182886,0.00750493761213355
0.0621934126224773,0.0811519699545414,0.017751132500815,0.0111396163985504
0.0644432790005134,0.0754767026312793,0.010821592057781,0.00993420340033946
0.0453019434475407,0.064281471854179,0.00847315093248468,0.0102876178570663
0.0617989159413286,0.0799436361400936,0.00825223360263362,0.00860265505787246
0.0647657446244162,0.0798634661865152,0.0117802190939826,0.0147031145698134
0.0500790813089321,0.0733397484495273,0.0127965485546952,0.00869385911929344
0.048998802753403,0.0965068503899911,0.0145170328075974,0.00943652800064063
0.0591988910452612,0.0610863531934399,0.0125056745795041,0.0111509670021088
0.045652560221729,0.0774243476369586,0.008524106990714,0.0107476673320119
0.0565692055803388,0.0891296090829348,0.0109546288317565,0.00954314711417939
0.051171208424087,0.0835188524317449,0.0120697786383938,0.0104459550862337
0.0524240328280547,0.0772192967088361,0.0101280240984437,0.0117844890700478
0.0455045688711179,0.0763336732471185,0.00923187104859216,0.00934246478980217
0.0577301166134317,0.0645307984756794,0.00939609498812883,0.0102432777137679
0.0677853715091738,0.0683307489315494,0.00970581443710702,0.0078843181908671
0.058297452066069,0.0771185636066967,0.00826857611400654,0.00970034368870572
0.0724029303645164,0.100208707360529,0.0107903938435606,0.00942457483650178
0.0615634595785082,0.0689656435797485,0.00888387127912156,0.011374818523937
0.0512151937312792,0.0716069555441228,0.00930814687593939,0.010866286213672
0.0799464346734324,0.0416198910840165,0.00854375902278991,0.0103445178541762
0.0869381804884867,0.0535824712249093,0.007500943715041,0.0110366052021356
0.0985350864878311,0.0344858901691568,0.0085001868630459,0.0117090347922295
0.0759356106529675,0.0639261919524663,0.0104317537890401,0.0126988539168455
0.126956466469255,0.0512560792378363,0.00930651572241052,0.0164918020787868
0.0963496390363135,0.0771567597135041,0.0106398163496809,0.0115669711884962
0.104683721427901,0.0929951556062961,0.0104533025617515,0.0191106501735099
0.110483247297221,0.0805691273438681,0.0121757537347879,0.0185129916070315
0.094039119280231,0.0742384522513225,0.0112791605673133,0.0184376722152376
0.098774424283514,0.0849911888974354,0.0154419003158718,0.0127437601653613
0.10072707955429,0.0844776353349764,0.0113337952750872,0.0148298098755955
0.0750342508214429,0.0619067119863196,0.0120285011913565,0.0191618378493484
0.0670355400166201,0.0555121337018968,0.0100927322693598,0.0164916222832634
0.0595824368067733,0.0548436586684726,0.0121044234249751,0.0101642455695455
0.066169743165716,0.0644392498412356,0.0114383114284983,0.00960198298316657
0.0860483956136883,0.0570174407974614,0.0108292891387132,0.0123799325375733
0.0667706822228229,0.0567733961022819,0.0106926660258134,0.0116779169214514
0.0693689361354225,0.0506455965121549,0.0104676229260474,0.0128640096911078
0.016148752969862,0.0365027585492384,0.00577409351803879,0.00151195001124946
0.018032889364069,0.0216354911077957,0.00576088184945746,0.00197067148286839
0.0148711470800446,0.0243868057527046,0.00567411981871562,0.00180595959542753
0.0146331235961992,0.0189521613113194,0.00631868911453981,0.00166673785834556
0.0167782637001837,0.0264572898601435,0.00546719236653261,0.001620084048914
0.0116753116290518,0.0227413794671494,0.00514222680322599,0.00150792195917149
0.0153201918466989,0.0307794079106921,0.0061774124171526,0.00155101362822585
0.0207090840571758,0.0238372175289845,0.00728634231643148,0.00176463520211507
0.0223726439004291,0.031940763416135,0.00757406227714155,0.00263030649190289
0.029453449501604,0.0271213347735519,0.00714800794204567,0.0043666500793233
0.0253240091442463,0.0261940976495338,0.00926230363233933,0.0029194759066192
0.0488123201728699,0.0415261944095651,0.00864160935178526,0.00146078606274823
0.0352193188545322,0.036237956574458,0.0110969304307489,0.00185222749821703
0.0315920580708575,0.0426006651264236,0.00991672270527683,0.00259266058719765
0.0172411648262467,0.0517792428779351,0.0134262082316498,0.00275486715550061
0.0262595111189109,0.0601240175110601,0.0116271067903915,0.0148266089875219
0.0540519417405856,0.0534374667736877,0.0136671043629555,0.0138390769512594
0.0339686892966435,0.0658600927198903,0.0151080419471031,0.0168673871837563
0.0332024354039654,0.070396083270674,0.0129213363172112,0.0213822633897063
0.0224630735550647,0.0657771637591678,0.0107623484701394,0.0114433087422709
0.0292564793580519,0.0661657657515946,0.0127758860358592,0.0148981004816661
0.0312562675708106,0.0687792247654906,0.0212709908485861,0.0177460445174285
0.0301830037529869,0.069884094587601,0.0114421318440047,0.0174597855631374
0.0210812819238436,0.0680169481657352,0.0106841060017184,0.0108472249709006
0.034822584056673,0.0742990541740366,0.0160573734984573,0.00349069873630369
0.0421679288038123,0.0681941612018523,0.0157397728939871,0.0100793346585144
0.0274015157387432,0.0600874397138443,0.0114447814784308,0.00959933074965324
0.0334941178737498,0.0567509892510337,0.0113341263590932,0.00310644887413537
0.0297311002957653,0.0503849639989768,0.0113220912105715,0.00291312539165295
0.0309933632894088,0.0633865711655871,0.00937182566677011,0.00888867162637052
0.0234239043234915,0.05844508044949,0.0106093274237275,0.00961752145372615
0.0244940259206703,0.0630054729336288,0.0075370754795572,0.00241417384523907
0.029918578092748,0.0601843116535829,0.00999184159031449,0.00408580306244527
0.0225836207097687,0.0448252067923608,0.0103310094923657,0.00310903754257336
0.0246108206118743,0.054786953362279,0.0106948473921452,0.00273910970112742
0.0232207335133666,0.0556145584964128,0.0104435517140104,0.00257746887886099
0.0209805620227464,0.0356527534854403,0.0087344116597674,0.00228821846929933
0.0259176276417257,0.0379326761592696,0.0108502534565244,0.00190728632835173
0.0238117367544961,0.0481002321891601,0.0101913502230961,0.00257845252078821
0.0315291600442899,0.0493313321894794,0.010640790286992,0.00219540328752128
0.0287693203412769,0.0422878498953202,0.0106514478889064,0.00210205754600689
0.0221701121271585,0.0478976210132595,0.00859746135701773,0.00208610376803476
0.025293615569829,0.0411966961792896,0.00832308043837754,0.00162532453529046
0.0256447244221872,0.0447909846790176,0.00856157295893127,0.00257675256090669
0.0183229793889411,0.0394635288478117,0.00680413602799539,0.00146283238089474
0.0241505471378046,0.04826628642952,0.00759338171486714,0.00205432138849301
0.0234657426121276,0.0485482743851038,0.00652764153576723,0.00144343948730822
0.0256143944033508,0.0369433356736576,0.0078879790802748,0.00184010980063289
0.023123906382605,0.03649073954496,0.013057187292939,0.00184985526202145
0.0185494179947287,0.0404770524046401,0.00879764107876959,0.00134140813273926
0.0231314364329511,0.0428818527926051,0.0103605623518447,0.00188869650810992
0.0199665480635536,0.0374583106681887,0.00927432831371219,0.00154721169851797
0.0167565914801001,0.0478406883993272,0.00966310488598839,0.00138886357875992
0.0183835393003104,0.0427239984094741,0.00782681514356173,0.00181696394987978
0.0166559101979316,0.0480801059924032,0.00962726370415263,0.00170133795418593
0.0199618070607048,0.0403348205731286,0.00893635009141842,0.00142116802950037
0.0185541247731594,0.0298364894715343,0.00784725493777859,0.00115580237963337
0.0211563862349,0.0429844415024583,0.00866138506574796,0.0017423336988708
0.0193164096491959,0.0369065780952058,0.0127521472952068,0.00132034161878075
0.0258918761942757,0.0525900656629638,0.0082926012484396,0.00133818801424487
0.0248812094183032,0.0615115656369626,0.00723096096455939,0.00244328142593084
0.0256495446998631,0.0549699539981187,0.0067887045815148,0.00216257495664708
0.0220762019500291,0.0494079055230224,0.00731876610306395,0.00200100459692493
0.0247928586424371,0.0540176822955785,0.0067146364067172,0.00223190873759893
0.0233251855886513,0.0584038369607012,0.00751645253085868,0.00151932078699227
0.0281797318674572,0.0527117190393142,0.00746466195549818,0.00240124416089194
0.0252425400943517,0.0540931129493199,0.0069942693100745,0.00175244236620495
0.0222895267720457,0.0485638930694405,0.00667983102121154,0.00187302955455551
0.030027076322994,0.0525315746794869,0.00656731567587088,0.00220164456911342
0.0265029076935016,0.0611381096260308,0.00661155371585034,0.00219672469785563
0.0252574105320396,0.0639237151650921,0.00514412481483287,0.0103814600740075
0.0300138732977027,0.0811328929957586,0.0109534634665052,0.0210018966842625
0.0358603541780502,0.0988773895523347,0.00927093063161475,0.00922872027142316
0.0283781362159193,0.0681946419432188,0.00730677254363664,0.0117379173125102
0.0342065407355564,0.0664440826080794,0.00793491053656194,0.0151873300989004
0.0394862358407623,0.0668542712524924,0.00889469163636655,0.0213080555357483
0.0377113136673393,0.0868578053786457,0.0139442995158719,0.0259488625896721
0.0370242762510387,0.084806874464629,0.010700665450478,0.028235155605462
0.0389201867780903,0.0743368541376866,0.0115760596733674,0.023766262171484
0.0457275413065134,0.0806314870170916,0.0192484890455127,0.0231709410978068
0.0417880170053428,0.0761128383586415,0.0102580543131666,0.0226014883999129
0.0529894053061734,0.084093022733541,0.0123563485968536,0.0277174127920995
0.0472011861537634,0.0701741753058359,0.0108107117525135,0.033764508663302
0.0493467524240615,0.0709473867747028,0.0116560175791696,0.0309693125813048
0.0457691152654136,0.0647508331374589,0.014666748369031,0.0207141917895884
0.0478426627960049,0.0697941502433997,0.0109686316585843,0.0276946331411078
0.0339941651935068,0.0947132368826167,0.0110607467337074,0.0333407502880491
0.0573350998305548,0.0669879796476246,0.00681304614222433,0.0339870894281241
0.0394598791716306,0.114463809554587,0.0125273720106197,0.0204919137029042
0.0529561863017362,0.0922966177826637,0.00983348201633713,0.0287669554460731
0.0378818439557259,0.0756922403232517,0.00989452961331055,0.0288391236722444
0.0372655300224661,0.0911302500072285,0.00846484655824885,0.0238055612765212
0.0406665893953975,0.0709093966034678,0.00887544764371487,0.0304264442971536
0.0325223710050432,0.065579375908388,0.00904604145075595,0.0174093278288953
0.0303808887934168,0.0587202870063604,0.00821701948480949,0.0192438136760927
0.0350737874924152,0.0775441488859212,0.0109062273672688,0.021626813438645
0.0305535159082848,0.0741354415119861,0.00851672279439902,0.0166962637439015
0.0366260194394928,0.0660067717049083,0.0076992244530751,0.0191662510665247
0.0405985020211146,0.0837359812076138,0.010564431131589,0.0171086976898996
0.0389411157671011,0.0665482882142715,0.00675973726685059,0.0145298222584773
0.030832532149478,0.0904260917191494,0.0106863116631639,0.0211817972447439
0.0399754010397043,0.0667014920240784,0.00784892067089482,0.0165804234953636
0.0371342046148738,0.0727836975838085,0.00782165171994972,0.0194117592622883
0.0385741288977013,0.0864434818161139,0.00873390137474312,0.0168249572322455
0.0450658563135887,0.0661423136616505,0.00838640214219551,0.0212394715027137
0.0316263347440591,0.0600310920317654,0.00700155447896407,0.0167808995026203
0.0335904222954261,0.0691347104028249,0.00727222374116062,0.0152803036687181
0.0321561558394388,0.0770074384476261,0.00901402513132156,0.0269644921702568
0.0343294756471116,0.0686068563338496,0.00947210458365903,0.0129593142960341
0.043979389511788,0.0724299775409019,0.00992975580156824,0.0142041526556953
0.0352557161590335,0.0643665676899585,0.00644381687659736,0.0165558229624147
0.0339975671976196,0.0728070183368976,0.0082693767304371,0.0163352847892017
0.0317840197543742,0.0776548883748867,0.00915881658229733,0.0188154938786576
0.03018808069092,0.0803690060147155,0.0095148104695215,0.0236027461346831
0.0455530513902219,0.0724214798496664,0.0110902319102873,0.0131057442086382
0.0335507390530629,0.0539719961475139,0.0106541923921558,0.0150553874925938
0.0366102766040108,0.0930850779138574,0.00976665652582191,0.0148268577407804
0.0323501028049803,0.0755431853475261,0.00874131462148226,0.0166806325778054
0.0348138887861399,0.0877689966012456,0.00963560607976732,0.0201393314691658
0.0301314810095061,0.0883556731925043,0.00785892633408772,0.024969390993534
0.0183244662948186,0.0483848248984119,0.0125705512141077,0.00221333464463593
0.0172542088273875,0.0565989840142491,0.0126450150955462,0.0021280800637418
0.0169563117156686,0.0516478771732138,0.0113633474568563,0.00204531750557781
0.0165012790044733,0.0582160008101448,0.00931711698010429,0.00246356732668692
0.016589826560274,0.0437435830715314,0.0117009077761062,0.00230158924640552
0.0216124265809366,0.06058680170002,0.0127254724960906,0.00192775325396767
0.0194593568196277,0.0536690037657846,0.013613034149393,0.00311224844025229
0.0168139504460833,0.0409233312361067,0.0138391250841804,0.00435063294515973
0.0171769473914908,0.0633386922970593,0.0182108490171987,0.00363161159037101
0.0172223760234025,0.0603074367191988,0.0137649245239533,0.00299618597963542
0.019003769679673,0.0551802370084999,0.0134727688469454,0.00204246209328442
0.0202123318476576,0.0509707347204863,0.0154414853030559,0.00362564463769238
0.0179901305138273,0.0730641790246834,0.0167536552405581,0.00387675526471063
0.0232910992997432,0.0783893626355459,0.0157256283985993,0.0198692737358413
0.0212465307997678,0.0859151715713586,0.0223735562400761,0.00821421427980084
0.0352117043369818,0.15252662947043,0.0237969224781178,0.022681790613232
0.0241402360045555,0.114262869304832,0.0187861669518929,0.0141870469823097
0.0303588439778235,0.119573397456116,0.0172688071213483,0.0120171388000753
0.0271186085799309,0.123310520596309,0.0160343549981577,0.00936832295321347
0.0256925480091907,0.105511047913903,0.0165798049439862,0.00921783919020054
0.0295060998785124,0.133064243232692,0.0144878375831369,0.00928562205381977
0.0279654943679144,0.088129408512927,0.0160472218481787,0.00843566078397648
0.0317562886348756,0.127667059006371,0.0182994626777793,0.00883301226328969
0.0437324630969456,0.186952255841566,0.0251708106455104,0.0101312272086373
0.0376139049173319,0.122802562496901,0.0198702358118935,0.0105538981663631
0.0373988789248994,0.123835285316783,0.0190888062569296,0.0113594956820369
0.0344599332624355,0.139044001665658,0.0184155947493267,0.0130571022919815
0.0340440772808835,0.163716667053385,0.019892735048212,0.0128702649797755
0.0390821866694686,0.193465434700134,0.0250296685301551,0.0125760024083029
0.0472668819390056,0.15189933796649,0.0238985931373501,0.0106713241389728
0.0350314000370058,0.192644284053721,0.0252520291060232,0.00992379532149771
0.0318600195411057,0.152068072882623,0.0221518528195009,0.00779945760775414
0.0385333133549704,0.146321204501076,0.0218002863996383,0.0102800068504506
0.04427833350425,0.137362543568657,0.0239043873014718,0.0106547643038988
0.0391270992150286,0.121070152663545,0.0152062998475501,0.0107302501703797
0.0487150555166051,0.122578637998228,0.0167872764690337,0.0087673561267966
0.0445586847267472,0.178080298866742,0.0188050735295563,0.00747360268907154
0.0551704433064318,0.118923911068425,0.0189579365405448,0.0101316958424337
0.0455306852686761,0.157595800812349,0.0289609055606655,0.00879789887585926
0.0467873140934464,0.12400045413084,0.0203234982172108,0.0055390731324322
0.0463021813708815,0.128344356048372,0.0186213525784623,0.00821595812907235
0.039411277758957,0.133530285002002,0.0213491923004015,0.00715382106254736
0.0510573882754597,0.124261349451668,0.0212694206752768,0.0070739504974582
0.049858910181192,0.134971881240666,0.0181597099758136,0.00671897624234064
0.0489073072963022,0.109876799171693,0.0197897797426132,0.0055870916115874
0.0442938835206967,0.147051205730826,0.0211939148661804,0.00567834575745294
0.0427156957018626,0.134348300998768,0.0177576933989974,0.0052270505914697
0.0429552985329708,0.107982010182649,0.0199337386105744,0.00567523640688883
0.0361059066760329,0.120872858686965,0.0175255982966356,0.00485935467749234
0.0408198054515775,0.107404491642535,0.0182661629198252,0.00431291526821664
0.0456336481335945,0.12600369669379,0.0174887898662733,0.00456117521771564
0.0373166591430321,0.124485285027583,0.0181553768780289,0.00632981055465582
0.0352273126087864,0.0962189680341198,0.0176319472413976,0.0049233177775631
0.0410689542981144,0.143655208315867,0.0259258841698643,0.00514423387264291
0.0345915045250249,0.0861079476204687,0.0157289260725929,0.00440163651939463
0.0390556002172077,0.0777266221823253,0.0159519721179682,0.00475138054578757
0.031348076157846,0.10605366482367,0.0129634599010528,0.00447333604401302
0.0311953559764913,0.113892450626852,0.0152348738096808,0.00489050810532092
0.0400924166094181,0.0868789111251198,0.0176119130953112,0.00424805425144679
0.0358170466672626,0.126141260478742,0.0194493613569556,0.0048142636213348
0.0278148268426426,0.0349745646101126,0.0118729214467088,0.012833298488953
0.0230904918290355,0.0404468018248315,0.0156912979034406,0.0119864888824084
0.0274968943861447,0.0457517891027449,0.015772951099713,0.011370251344731
0.0248525931735841,0.0401949239012588,0.0109493219902745,0.00939616001578497
0.0304349257916366,0.0373191457388128,0.0119792658242976,0.00715397219522239
0.0279811733436076,0.034629877208468,0.0156026323884709,0.010403704088376
0.022930992856615,0.0352498444458985,0.0121899856711308,0.0096337275278821
0.0282433762038763,0.042388879489147,0.0145865287166384,0.0141460142000735
0.0245963751925565,0.0423449648141728,0.0129712216350395,0.0107425854106328
0.0291953253918652,0.0338396988080369,0.0106436658933853,0.011952202361852
0.0396716125857128,0.0397159490429443,0.0162586908689313,0.0134493380415396
0.0313623659941792,0.037264423248192,0.0142180481587686,0.0106838120979687
0.0327158753688489,0.0313823572045249,0.0148232521580682,0.0178293856582289
0.0370468442654495,0.0340381468174717,0.0148158910065191,0.0144891837890313
0.021759793149511,0.03554953031253,0.0118199529694242,0.0127877330971595
0.0275784613720827,0.0358541676140717,0.0235311183237155,0.0237718023280378
0.0260031434594209,0.0318063368866679,0.0185180549381441,0.0119717033672388
0.0230732369080378,0.0310191705022046,0.0160969783948267,0.0215362811018404
0.0254576901481019,0.0413244692054978,0.0163447587657185,0.025857499612318
0.035414947713721,0.0450624076697372,0.015003666176286,0.025749723019334
0.0397761723186978,0.0385873416720369,0.0202638322344287,0.0236396060495257
0.0562706866586421,0.0375194643780117,0.0235356053468718,0.0398958189986618
0.0416090092102803,0.0479938900020203,0.0194337469149498,0.0430441343606531
0.0439084613197977,0.0410019995907736,0.0158954261328703,0.0228818606685057
0.0373169284409428,0.0406503612110374,0.0180720370065863,0.0318975399486524
0.0461558392279316,0.0514546262178045,0.0181710335844277,0.0355526563905912
0.0597708621881898,0.0657059829784154,0.0130295340955906,0.0348560967967009
0.0819402627920848,0.072125922956063,0.0194372078436715,0.0296167848710512
0.083280862283228,0.0706178100509381,0.0153390501590868,0.0314685335908482
0.0692582186383189,0.0627131387664511,0.0193197924648342,0.0227635877507507
0.0544046728662248,0.0602149806195966,0.0208289156333731,0.0346616165750162
0.0654683336916399,0.0536036061294396,0.0202554581494835,0.0321296182428165
0.049939793743968,0.0586237894779898,0.0213494220944919,0.0220713242062764
0.0802227298232055,0.0464087494362997,0.0296218481450417,0.0278032031745755
0.063339680085503,0.0518430602607171,0.0305961194354538,0.0230978827846483
0.0597283663440915,0.0411874191890914,0.0268769685691082,0.0197914442608892
0.0607072214249394,0.0436632647262292,0.0212848956266716,0.0249507866219016
0.0581673895897518,0.0466429628858474,0.0232303537475481,0.036537877610861
0.0605164417884773,0.0460298730216345,0.0178851844568957,0.0282186929013719
0.0589131715028338,0.0399442932666906,0.0207389104601171,0.0242947066795973
0.0553019624838381,0.0501143511756413,0.0168487328760789,0.027076982535717
0.0593706582065859,0.0653264793793773,0.0249019596193463,0.0235923964653452
0.0443963465745749,0.0527768600933048,0.0273460881795567,0.0326521657723798
0.0586132255813247,0.0409832913960653,0.0247884359372345,0.0403731889575988
0.0559442100399942,0.0430053605797555,0.0280570826442897,0.0265270930728185
0.0540928435250113,0.0479544600886263,0.020200519959208,0.0226594761171347
0.0573342819754772,0.0533355760741264,0.0204579315458006,0.0346414728636614
0.0568554243523402,0.0514387055393839,0.0176994925234331,0.0194025848505937
0.0545238735973536,0.0442722000000065,0.0207044254480007,0.0283533477961691
0.0535517568691008,0.0469580074117013,0.0232402712262245,0.0338521995278446
0.0330076379260917,0.0387529249321421,0.0210795827586263,0.018560065455615
0.0557860605379481,0.0630147064668364,0.0304292716656961,0.027725049015725
0.0574352818657975,0.0489556741289411,0.0273894356288394,0.020641223375358
0.0699277932719331,0.0526258805323571,0.0312027147525508,0.0328375947889378
0.0536364129332083,0.0507541032137547,0.0205356503484716,0.020929419768938
0.0499489078214344,0.0510102473687339,0.0223011036224874,0.0240290755482941
0.0532633803327009,0.0599498004506232,0.0317052949450344,0.0205852759735775
0.0617559941705809,0.0615396679143955,0.0210316382477532,0.0223427514975303
0.0493832569429915,0.0575554606282187,0.0261093017916772,0.0219311956722798
0.0488613636375225,0.050699589028672,0.0190425182044552,0.0188705326392492
0.0334371870469384,0.0346762976980308,0.0157935281686018,0.00607406925659167
0.0351961944700502,0.0310641591216249,0.0145315706044508,0.00692793200897136
0.0380870077801621,0.0395548356553909,0.0142112521579234,0.00489841455912197
0.0407600208043067,0.0342813404625888,0.0160459602844377,0.00659480691286346
0.0397264518128056,0.0406338317935298,0.0161183917715659,0.00690388881923936
0.0390379855765977,0.0361602048342752,0.0149233121018577,0.00589422242572632
0.032385823161402,0.0302251578562642,0.0142599509434794,0.00485826708496129
0.0383082215913041,0.0317389643885972,0.0153204513121956,0.00568237913560028
0.0444086547548643,0.037802210454781,0.0162062739178465,0.00658976508756415
0.035502747438694,0.0502301597181757,0.0192668459487315,0.0071227586441932
0.0457912419094263,0.0509002322246412,0.0188269285464487,0.00646044961183187
0.0461600679732637,0.0626178453358269,0.0167121177281381,0.00764407925620766
0.0493309446537381,0.0824070254714467,0.0285318093842268,0.0128977648455666
0.0411113085049661,0.0776296286891233,0.0208690560113447,0.0141507141375781
0.0317230856400586,0.0539442286343722,0.0206546183331768,0.0183274193869667
0.0401754331731051,0.066097065368742,0.02770888541918,0.016681033284647
0.0463045045038002,0.0597578350494383,0.0273484325671556,0.027433461600907
0.0426371213655606,0.0911028411898824,0.029303669460586,0.0225579325701449
0.0457204680755103,0.0846083858751785,0.0302099414434759,0.0270546406547234
0.0498739168297131,0.120681145485646,0.0277396609135656,0.0231721439683045
0.0463790174396176,0.0803142784307693,0.0252952025748615,0.0284423413797797
0.0458577959141442,0.0990277398362698,0.0259302516686307,0.0273175689053505
0.0376872379300383,0.0812660108091615,0.0204289394364663,0.0255413923036853
0.0493647447960671,0.0851395463713994,0.0227321639471897,0.0283098570412257
0.0377597917292956,0.101319248420919,0.0325586566063521,0.0196724378222789
0.0521383189103034,0.104983512141446,0.0352983176350251,0.032932937005867
0.0380541374658556,0.0649206079794371,0.0244675117458135,0.0286304266926214
0.0360915973631764,0.0978440098135687,0.0315381512515748,0.0292004601299202
0.033144094037257,0.0856535883836036,0.0252132187151545,0.0284714043752148
0.0465743897634108,0.0817878801112488,0.0285426917893038,0.0369057980808334
0.0717685908970781,0.0907320376285533,0.0273397912487793,0.0299388721333652
0.0331788353257295,0.0730760852810027,0.0243061223229467,0.0337297072435581
0.0337782339831096,0.0827731935757875,0.0217575446890071,0.0447948661356833
0.0423416277630106,0.0819974659838354,0.0263645293620951,0.0378427897506881
0.0366653081314828,0.114106065557729,0.0273730300148182,0.0418178377828568
0.0386210153024851,0.0916755524731558,0.0255079585950763,0.0387044099997849
0.0509264291631418,0.106131847905971,0.0323617893729637,0.0480159222983493
0.0449384153543108,0.0953016188158308,0.0293130133812792,0.0436922961599051
0.0442674472202397,0.0874534124036061,0.0280273958344351,0.0406559423487072
0.0467448859987728,0.105798192072204,0.0303341566749276,0.0403622632478373
0.0433172386181379,0.0835679787372547,0.0317771283645457,0.050325050289198
0.0415617520305069,0.0839272170226057,0.0250383764370424,0.0555834540016024
0.036206755025747,0.0839674068409872,0.0271717052271173,0.0391286785331312
0.0313250682010411,0.0753845915067342,0.0247636864425856,0.0424347323022235
0.0353558831864024,0.0708212910687976,0.0211963983774325,0.0364669372619403
0.0424092304457913,0.0822003146245924,0.0256899182208616,0.041530585319484
0.0342292686918647,0.0766670944394079,0.0232865967832653,0.0383060754329785
0.0316955619505772,0.062533213705394,0.0263466979633954,0.045927922079436
0.0324443164959165,0.0763544884851862,0.020827865451549,0.0412506722140155
0.0287250809032289,0.0732678365006856,0.020341745573161,0.0510565404186047
0.0284332565056513,0.0757160650677526,0.022340780953739,0.0432380821873129
0.0264673652703535,0.0533342895968027,0.0240888443049252,0.0375261021493529
0.0345812466644776,0.0633138392487016,0.0209909159865329,0.0316759248780388
0.033625029017881,0.0578821870849961,0.0227021627367044,0.0391868234999439
0.0284979275899957,0.0580303790451161,0.0191343867179945,0.035491587545945
0.0263392117447103,0.0671072734436429,0.0198289567646774,0.034206875517129
0.0255445355758555,0.0611134708360457,0.0166257540251927,0.0396806233264251
0.0239633509963272,0.0511262154133115,0.0192608308990878,0.0315386977165458
0.0241015047270352,0.06280988532296,0.0178043407048052,0.0335982329277018
0.0270863610895844,0.0581276963493879,0.01529409287322,0.0382724026390709
0.0165897600155326,0.0572233683741551,0.00559642585457978,0.00476550418056097
0.0174516599816974,0.0468818129985635,0.00547985957252365,0.00536660537547128
0.0214580599679271,0.0370253799932644,0.00578281953082578,0.00604530537834631
0.020628760373169,0.0404277986946953,0.00595569699203629,0.00512238276609939
0.015766607689641,0.0423370560801634,0.00921804544978017,0.00485907344827431
0.0163219903025542,0.0468263113323103,0.00749036159665916,0.0041113055095393
0.0233851076176077,0.0524977953193646,0.00712544439227602,0.00672257052530661
0.0207936857128596,0.0470218417447273,0.00708014348069899,0.00495614832027624
0.0218351869829704,0.0539377135522428,0.00593373329902067,0.0053849045441874
0.0231861245342225,0.0394637216571922,0.00562139482703969,0.00691872240863075
0.0216029451435244,0.0390542233496028,0.00734839460506017,0.00556039517005368
0.0184443216541238,0.0367940205096185,0.00487559149130079,0.00722547571324955
0.0216674460573627,0.0372674926951396,0.00420195669058121,0.00515218440267272
0.0259402173453704,0.0452085851881576,0.0118968906848537,0.00645350204859679
0.0277277372705707,0.0461888237071029,0.021559218525923,0.00744074478603886
0.0291372502710842,0.0558765417100152,0.0106844591275849,0.00961625820368894
0.0222230021848304,0.0472066805724804,0.00996465390257497,0.00786039585539272
0.0234326237794667,0.0579424936518113,0.0132306224032552,0.00744471865628732
0.0262372443412487,0.0512062415770751,0.0113806853423567,0.00699444475058009
0.0297469301950548,0.0506257847504209,0.0101265629585803,0.00809325695873789
0.0271494966839981,0.0441141400634364,0.011098245349022,0.0100565258777906
0.0311015955392053,0.0532278188274604,0.0100887504352305,0.0090889021657773
0.0410261845399681,0.0617998651767721,0.0115281345782449,0.0112561003934802
0.0467321118565804,0.0522797206052945,0.0086892744619144,0.00876070903861011
0.0472783050781558,0.0535786799389761,0.0086051650101287,0.0103773429207367
0.0640808037429305,0.0619143055083026,0.0118795772867298,0.0154404580467892
0.0505423964941595,0.0542058789849639,0.00765114780365828,0.0157733869077458
0.0510715679078713,0.0552773062808996,0.00957389130894557,0.013822981769575
0.0388814014447063,0.0708944423493263,0.0103829936816909,0.0137105630697759
0.0541449984522814,0.0656237652427778,0.00946611532416814,0.0178739909044466
0.0589933989875201,0.0667246275631951,0.0109800679682535,0.017723451697696
0.0532040333154483,0.07590905177847,0.0108067007362966,0.0170598090035679
0.0449305289219908,0.0749062362465633,0.0138530370421784,0.0141580393324631
0.0672959663863793,0.0634277845302669,0.0100312653755631,0.0139595882236957
0.0709842466229328,0.0591012893347716,0.00952412611778444,0.0110546681677183
0.0520868178115544,0.0523676463939954,0.0133242406270774,0.0141889223644039
0.0502574163037964,0.0572131247773334,0.0117916750012246,0.0102850073058564
0.0439332147692559,0.0682131990348565,0.0109355375582896,0.0114084633173884
0.0430088763970663,0.0657751573451178,0.0115939793981495,0.0105041207210724
0.0428940365940696,0.0661122016091775,0.00988725389755554,0.0122385863468448
0.0364239894782531,0.0747043998415995,0.00978866413678489,0.0122096687976689
0.0409412949166352,0.0840102942443411,0.00959258331960753,0.0115193023431382
0.0329598078397249,0.0534923842883113,0.0091355528950736,0.0098508014241502
0.046382793521742,0.0833825786396799,0.0114610449544236,0.00876162500195814
0.0323807863913846,0.0728844051902544,0.00990099939528013,0.00994902887292583
0.0373684698881341,0.0761061331286842,0.0103585483039092,0.0133069309198255
0.042300612427371,0.0844281335153567,0.0123112820524801,0.0136572766901729
0.0393658701634378,0.0655001941163002,0.0060388350849468,0.0099573043651859
0.0431477792259506,0.0687554025015063,0.00949407951456461,0.0124433822874844
0.0389937780550071,0.0685950018145499,0.0110163079033213,0.0121290968801319
0.0335135766210054,0.0712667668746805,0.00860699812220137,0.0143701938873812
0.042476080140654,0.0532133131099278,0.0102300317558336,0.0141764750762177
0.0485043950545807,0.0557583752476513,0.0127625733843426,0.0104517514152765
0.0434614606777985,0.0791785402992851,0.010168585407964,0.0102433681840487
0.0392657658499334,0.0791449846908203,0.0102536102592791,0.012316033594754
0.0479746324031318,0.0673527581067105,0.0102002588455005,0.0103032930060239
0.0503161887867621,0.0771018226817074,0.00762001364463299,0.0126762919174981
0.0465383247267913,0.0721387400622784,0.0126236679157226,0.0116159703437033
0.0393156299999474,0.0652883964363618,0.00995236380096748,0.0106051761675407
0.0367720792647633,0.0831411333488285,0.00898419286986449,0.0118443507341361
0.019434569289759,0.0612723951332727,0.0107260406389132,0.0279275168956257
0.0236761916733341,0.0648196923625176,0.0111495589377686,0.0295482851715042
0.0175620770527149,0.0582177091693284,0.00773976488367542,0.0281732889087725
0.0196254082430081,0.0540897042504899,0.00757859995909986,0.00589629950298497
0.0195659483160253,0.0669324864117569,0.00908854109611093,0.0292647524894468
0.0218356138879506,0.0656980441660959,0.0102306602087615,0.0297924016312177
0.0233589459085946,0.0561574704506702,0.0099505371347674,0.0285463949503734
0.0186207937170024,0.0492357530465953,0.0104510732013367,0.0342138530031632
0.0190316427610394,0.0547165824840668,0.00903520855222935,0.0113369700505855
0.0206017017839319,0.0817891809587193,0.00880890645266283,0.0335421872693395
0.0222232883829097,0.0433740978303529,0.00806799013447801,0.0327952046549623
0.0249083433479361,0.0631786900476067,0.0104257075839241,0.0328006120321475
0.0234687897749642,0.0590024571809038,0.010734072186743,0.0330571273470139
0.0263493493189494,0.0603616808181946,0.00661946977444814,0.0313239433932126
0.021617456855556,0.06183547778712,0.00956557383747002,0.0317840341456746
0.0189625383662913,0.0515629189462079,0.00940062725328536,0.0289038034809942
0.0231972150853504,0.0683148155477153,0.00728779141830288,0.0368321589712466
0.0355307269217579,0.0712497594914743,0.00737229381830571,0.0357317393158907
0.0291861099330766,0.0835074571647976,0.00841775448028612,0.0328876133905779
0.0375889242799708,0.079693973371198,0.00851764158910485,0.0263166237775271
0.0350022986309469,0.0769218817324882,0.00853713831234331,0.0284244436811576
0.042160920596571,0.0642880996657026,0.00733312820338772,0.0490782576329232
0.042208828354,0.0688876080983634,0.00773141194408087,0.0348042726287826
0.0539284699215827,0.0888544955208231,0.00643225914472254,0.0405000724230561
0.04300392511675,0.0689266491517317,0.0087375542051742,0.0300616267123704
0.0543404385067159,0.06724386882464,0.0072432272421502,0.0367345080575292
0.051638419777011,0.0712165647729219,0.00798122750661995,0.0337813380075418
0.0510353031970723,0.0547301062484743,0.00685007859785751,0.0289261974840986
0.0612072841205073,0.082421153018689,0.00655715599719363,0.0329393523383786
0.0459457242367162,0.0665455414472862,0.0078747266533455,0.0379319896316125
0.0518804364594758,0.0675937797646736,0.00675337672565878,0.0352076386350951
0.0616259746607183,0.0616755454528407,0.00797875864558993,0.0377544381130107
0.0617838751555046,0.0621074247652221,0.00895536553196948,0.049507595700602
0.0560631182208352,0.0741092153225264,0.0089334752654429,0.039588356885406
0.0501953301082038,0.077705245165299,0.00757621494301488,0.0433799150935201
0.0557976965755788,0.0691813983031222,0.00781079758414365,0.0382458700289068
0.0621807591228246,0.0610572720432027,0.0289548972080317,0.0345787339502401
0.0608166154068199,0.0646806935929001,0.0268117146743681,0.0374779080932518
0.0508576776416871,0.0570734865410698,0.0120456461851285,0.0388905274119141
0.040362148684746,0.072117820094208,0.0104236087232968,0.0344975631117353
0.0454697188442257,0.0678143875646204,0.00758849634470802,0.0360819688848972
0.0543803347486802,0.0737750646265081,0.00703995023588086,0.028408515731938
0.0552941045574489,0.0506812023954994,0.00513404648220298,0.0347998199085675
0.0509698414677953,0.05947642563524,0.00812634801406208,0.0168293863883118
0.0541984165241615,0.0598063037528055,0.00762454960058907,0.0368564304471639
0.0520929356615828,0.0525535195507565,0.00813960385032635,0.0334639000919711
0.0499354789392764,0.0644820300635374,0.00810251759587104,0.0350919133311529
0.0632316463304769,0.0614139102543519,0.0079740808457703,0.0166033498559747
0.0489135403622652,0.058966979996061,0.00734571645462159,0.0366901360853618
0.0378775215900446,0.0579312683589137,0.00722123214356869,0.0323643645877466
0.0341851422780771,0.0537758925080426,0.00597190650785137,0.030545861332536
0.0410406863950374,0.0662824057098952,0.00652795190338662,0.0170930754652885
0.0620310724433973,0.0472065289598284,0.00582566959731216,0.0319665726127562
0.0550249746796933,0.072216978067407,0.00924511854839416,0.0323807389697327
0.0466444432007262,0.0636790105921557,0.00672348752901282,0.00562152769918069
0.0507449399847857,0.0586524548788633,0.00798538067239626,0.0335362996318342
0.0509429978312821,0.0800304646239411,0.00707859686081759,0.0321199113144788
0.0575553966564754,0.0776792299354485,0.00830930259520933,0.0362765407790184
0.0590197638587528,0.0653483291127021,0.00694691872877001,0.0356808244740333
0.0457804814828519,0.054101709209489,0.00680727212039307,0.0346045479613544
0.0226177564805213,0.0316384090400229,0.010955866358834,0.00741271016158009
0.0265680308732633,0.0309650174214491,0.0108812186926882,0.00558009637581276
0.031533077048817,0.0290683906903642,0.0112592233134438,0.00648799763812017
0.0224987508504908,0.0250857443993603,0.0100345271115805,0.00582723607081655
0.0201743116552346,0.0303483943653292,0.0112186560669426,0.00610677828579818
0.0226932843507338,0.0289509527019722,0.014994215252973,0.0059223750081839
0.0233855844558475,0.0329698470030866,0.0118729259815965,0.00466476597994382
0.0255098122281508,0.0257794856641534,0.00950832513520331,0.00353406756173257
0.0244977771187701,0.0284957247579195,0.00975990035452895,0.00427319038720362
0.023897805724327,0.0297551848682518,0.0112887315446143,0.00527089861398496
0.0259634656103814,0.0363824978420754,0.0118869793507655,0.00597636910176837
0.0417951382424364,0.0310246403566901,0.0104112506350069,0.00590828946726574
0.0241055877516219,0.0283547919259012,0.0109049370105996,0.00515781195756302
0.0315759174656103,0.0305572543574454,0.0108632316754802,0.00833570001138855
0.0442845468246529,0.0331068296989315,0.00791047892074602,0.00557401955467776
0.039102274237872,0.0332719459623142,0.0100242398171481,0.0058893574884217
0.0290543352754188,0.032870355223853,0.0110755089537258,0.00611623717748542
0.0325485678113696,0.0320591805316557,0.0101650746723639,0.0055106149601125
0.0346821510373711,0.0322285751169578,0.0134147742436461,0.00865924682328437
0.0388833730586949,0.0346280757613277,0.0129460948264354,0.00696180040137354
0.038785513944221,0.0370464120474783,0.0122861380273772,0.00685189114195247
0.04329036754109,0.0323196868876652,0.0122795081564527,0.00690759223374767
0.0404177150452693,0.0384645869604613,0.01450610555159,0.00507276851320337
0.0364278266781679,0.0321994255914179,0.0120703776365913,0.00614518327598869
0.044103357514554,0.0375362675075868,0.0169458541310992,0.00502017808676624
0.0319792379074516,0.0286765229337503,0.0122946743989643,0.0044449800760729
0.0353102864860979,0.0345831504343227,0.0116980867587008,0.00397551428261088
0.0404546066572146,0.0330310174302983,0.0163270823724165,0.00508296602590059
0.039286487822155,0.0345524478708667,0.0168340442892497,0.00482713856300156
0.0329246306846848,0.0315330162704811,0.0124612382724764,0.00549673162928817
0.0298884951203702,0.0282219306498443,0.0120415610536314,0.00375877881247173
0.0347039716952154,0.0321578139762231,0.0109443863497892,0.00374400354386928
0.0360730384219837,0.0297574190399018,0.0110989184418554,0.00311273486629572
0.0394994837349479,0.0285367748489195,0.0100326864777116,0.00353401857892668
0.0350977010000492,0.0347063480419734,0.0118861466151494,0.00307711237617153
0.0381798712541027,0.0320989973520884,0.0106540710673872,0.00272719021461202
0.0322995164029356,0.0303578932411196,0.00935831756888746,0.00227525069538084
0.0380047747131135,0.0268456030336384,0.00939503183015291,0.00312377137880736
0.0264034341311873,0.0303228969258788,0.0125054396667062,0.00321814764645683
0.030349872427324,0.0266829365538673,0.0103781202589007,0.00272203464890495
0.0337516444005345,0.0365567033451313,0.0100729680788727,0.00293613907131148
0.0208325053763136,0.032183828622877,0.00928348523129576,0.00324501817220065
0.0292192937881848,0.0331742901583359,0.011611700099344,0.00245149911879826
0.0251961877644351,0.0319783282240107,0.0102677222998296,0.00315984187751886
0.0303071558856627,0.0209254473832951,0.00842841307353221,0.00340402423911984
0.0291415195496406,0.0274858580193156,0.00906223917011768,0.00374381845611704
0.027896085282372,0.0308117297344078,0.0100193872240267,0.0039748995753228
0.0402715837192183,0.0280667033979092,0.00949167475753558,0.00480640621716538
0.0227284495628809,0.0312793578969094,0.00955392085135741,0.00419701039329193
0.0330960174159215,0.0274589817066631,0.0120466197605409,0.00364963201163232
0.034394499128772,0.0286043497319092,0.00814451773712366,0.00399414644408576
0.0327941233656099,0.0277876942511298,0.00909171853501156,0.00477332338961134
0.0404902233275894,0.0240923631192204,0.0101437687301194,0.00423433958557102
0.0454708719517685,0.0296328094708133,0.0114340396963502,0.00449458236119869
0.0386629783574698,0.0269338461974408,0.0110808079229239,0.00470750580949421
0.03136719186046,0.0266995356186084,0.010140827546712,0.00750578632759127
0.0216296092065121,0.0276874004137076,0.0114924701906037,0.00289804570757634
0.0349468072771836,0.0278605128189161,0.00819796023826862,0.00502151223193114
0.0455376493561306,0.0451681406267673,0.0126204271452658,0.00512286166065708
0.0380137765178241,0.0334822020070661,0.0105745947126668,0.00340641944471421
0.0095534219579887,0.0198715126089662,0.00691837125377035,0.00364488671352626
0.00997584067350661,0.0201742376876696,0.00540945660846905,0.00399649939500952
0.0107985892988952,0.0232001003460411,0.00438474886425075,0.00555712644556516
0.0102969977082219,0.0202828681376989,0.00565859530261885,0.00420544317588065
0.0118406455081082,0.0192496597161267,0.00537115591813072,0.00424126751169823
0.0101911841751881,0.0178411619735967,0.00516801385783442,0.00448469868454593
0.0130483604324199,0.0217099810595278,0.00538623198449491,0.00418279604775227
0.00960126459351471,0.0211082215886943,0.00454175002428039,0.00292230553182584
0.0136761441319516,0.025570714465725,0.00584188541716819,0.00513198128093682
0.0115805554848263,0.0214050343548902,0.00643013038420022,0.00490613901956711
0.00995078086062304,0.0301930361346163,0.00533762657375856,0.00513817920483442
0.0119152327760894,0.0225924935158778,0.00737721104671828,0.00396283143655337
0.013192517732268,0.0195508623310319,0.00748853513589388,0.00381006554476404
0.0124185549155367,0.0255532449767272,0.00810547429780836,0.00449109962920789
0.0134786788081639,0.0205029253847243,0.00849704459617297,0.00500307236827654
0.0141024865621632,0.0250690373395751,0.0105090646816006,0.00637630287405477
0.0136203046646585,0.0293171957701374,0.00616159001304296,0.00499822507875594
0.0130216712769903,0.0279808308755036,0.00824271423751594,0.00610350968812599
0.0119092108816518,0.0262034146445617,0.0123920166647205,0.00398203213421727
0.0187124586224926,0.030607553713465,0.00914799821689103,0.00648504222882727
0.0160798505433126,0.0220569209500681,0.00979993722481165,0.00544393033400652
0.0180765947160428,0.0376421687888011,0.0102992220283897,0.00443546425534546
0.0169823448991365,0.0374317222722999,0.00862585002395896,0.00445419648438072
0.0215307209185005,0.0280179972372833,0.00650189179904451,0.00437821551425522
0.0153975891809501,0.0278760278819208,0.0131405786150252,0.00366576882380681
0.0264654292422505,0.0379951625417292,0.0106635974613433,0.00508406439168697
0.019994992038246,0.0395815082176312,0.0103598324801535,0.00433300251130644
0.0184822868505056,0.0380900097472148,0.00776098148973065,0.00422608623150671
0.0211505463931362,0.034946374083169,0.0107029688738394,0.00413341309713803
0.0248666098237586,0.0355770467934351,0.00972394560382196,0.00381808377167906
0.0230664517916151,0.0344973174256984,0.0106653698378898,0.0038420223352633
0.0231724732280064,0.0345619284784462,0.011177231260601,0.00463510628822094
0.027619619170218,0.0403710157127398,0.0109446912244803,0.00430780131040932
0.0231345258807476,0.0400542937968249,0.013855798781091,0.00391933305221701
0.020178704794843,0.0355009469826459,0.0146522615527071,0.00524497289021424
0.0226779336703356,0.03517106466618,0.0115770827100523,0.0039526289059605
0.0309091973022719,0.0430408114798787,0.0142747420662236,0.00378830117180526
0.0258152622411405,0.0405773347511321,0.0146254652474085,0.00422688101972134
0.0280468731474725,0.0410195653565361,0.0237637653855055,0.0037557427013745
0.0288254555656435,0.0346612702082961,0.0170505292923932,0.00481583890216257
0.0300437635119081,0.0426440767349312,0.023939167402823,0.00365777272206619
0.0285614147138249,0.0511699568443111,0.028033053028559,0.00410607752801532
0.0284602860047646,0.0451146877236597,0.0172677172832249,0.00494452459597787
0.0315656962960271,0.0448778117816875,0.0231102114582854,0.00358866691418733
0.027945002904955,0.0481104093019336,0.0259595540360726,0.00378244703674094
0.0243857341782831,0.0477642899099924,0.0220656133015591,0.00332860370098412
0.030316896591901,0.0471586298563647,0.0335957427988161,0.00383090844121694
0.0235750915209269,0.0479070079870389,0.0279008469217152,0.00289063135014904
0.0311826254336678,0.0360742262815346,0.0198885832259882,0.00376493914308391
0.0268964679444176,0.0440402243175633,0.01205191929073,0.0043114692960529
0.033942962660099,0.0413425197301101,0.0101136321357012,0.00305029696780489
0.0284569547103645,0.0479826618410285,0.0109453536625597,0.00313359160975575
0.0253854018660129,0.0477887869331589,0.0120203154663064,0.00396334966272435
0.0334126743994653,0.048838960073486,0.00984117996090458,0.00449124514352243
0.0299813183308202,0.0433523133763089,0.00944162335735485,0.00360035527381756
0.0231221595539812,0.0353435529066462,0.0137183355768161,0.00396857022356881
0.030833649044641,0.0397733299811814,0.0156209652971233,0.00330793383966577
0.022070572033387,0.0526600314182378,0.0102890399095097,0.0032930858667087
0.0303601077563102,0.0631909457892567,0.0128189511869469,0.00380621809003701
0.0232802126630494,0.0388299254213723,0.0098014805246241,0.00407950134084352
0.0275905907714016,0.0318786922325497,0.0105249962467534,0.00443800602645286
0.024048321986643,0.0294053873901462,0.011392154762081,0.00415069561488781
0.0210132797559914,0.0293975550085034,0.00981335409043926,0.00376368583236337
0.0278907457456587,0.0279202216526912,0.0112127211447749,0.00387095072897011
0.0248557949937103,0.037710706162261,0.0131543684665907,0.00494553796539802
0.0221278414523362,0.0332856202881772,0.0124314712277587,0.00500729276118687
0.0275364797327572,0.0282615941453174,0.010832260155762,0.00420963071319051
0.0233875589096622,0.03110878494757,0.0117637698623199,0.0044268936254857
0.0232249410232006,0.0260409464615493,0.0087194620158701,0.00465960223965351
0.0255890196413281,0.0320222172134721,0.00969591929196775,0.00380866616718133
0.0218874492212323,0.0316674456352149,0.00980698210347666,0.00467725441777213
0.0286588925964902,0.0246489201742854,0.0103847069021295,0.00466606190629779
0.024082192063615,0.0298430096543818,0.007960194231069,0.00471722474161843
0.020668557760183,0.0269247012764353,0.00804250851873617,0.0150434367169842
0.0287935155147254,0.0332309771129718,0.00809452754297899,0.0128037249372236
0.0256850343784946,0.0280468549565511,0.00989814781524388,0.011946356323599
0.0240557702329067,0.0246569970752947,0.00804408564842017,0.0154075676807603
0.0210518344932079,0.0313068843484228,0.0080098280527479,0.00855986664462733
0.025134830599275,0.02417079372268,0.00862990182100694,0.00994444516358032
0.0316181964312244,0.0301501750359575,0.0116426266541517,0.0109511640451543
0.0302941099835579,0.0260505961967323,0.0093590099633855,0.010147348413535
0.0344607029954451,0.0314747728785754,0.0114574989311061,0.00904888088725105
0.0264496986810825,0.0315168122466934,0.0119174933381518,0.00902780954517088
0.0285620044560209,0.0390775697772415,0.0123952623959287,0.0111750636110912
0.0376908262777608,0.0468512286171698,0.0104443607747864,0.00986631260968067
0.0488032344938706,0.0379767099097355,0.0106402303114392,0.0121510375814946
0.0411563628375502,0.0468162607040828,0.0114140347666872,0.0126363145251771
0.0463009115890682,0.0556072541715179,0.0128720202436777,0.0133260051774884
0.0430542192541147,0.0555754332100143,0.0127497998249042,0.00878789565349186
0.0539208858907635,0.0642590913799558,0.0131877358859593,0.0173087293580419
0.077037126752513,0.0929917259258956,0.0136024485230512,0.0168960203505243
0.0534975826622312,0.0726256498922671,0.0141029909165235,0.0144016241462789
0.0788393459159593,0.0832034460940741,0.0132038591643781,0.0167895987572613
0.0552712430846036,0.0684692967219702,0.0126748414804381,0.0178273748665343
0.0565540178263601,0.063297155547066,0.0140042314138397,0.0164380667986563
0.0535263089415375,0.0691579785447761,0.0122279388895337,0.0155538540468269
0.0405213075827939,0.0686079500251333,0.0129254377106483,0.0142562800242466
0.056272241448005,0.0619955800451505,0.0107465903802314,0.0133134060220305
0.0473805624160284,0.0597691441364639,0.0111709310827188,0.0106105593352043
0.039727054646238,0.0457420002528069,0.00889022811676024,0.0102801381208987
0.0583406929341725,0.053571344717086,0.00986917799819783,0.0112043131782012
0.0528792049659255,0.0583786885325709,0.0113309723119744,0.0122263224684921
0.0418254102571258,0.0505718575005748,0.0122029624448921,0.0119773662928955
0.0394788436122361,0.047880479411857,0.0123483952837563,0.00992177722505472
0.0334375351169214,0.048633926075364,0.0107287515338341,0.0131259495439595
0.0325160979735839,0.0531986406276641,0.00937691479049573,0.00866692824239984
0.0376676277604234,0.0463029800678343,0.008819209395985,0.00776893227586562
0.0432309396523101,0.0524408073146629,0.012447969327248,0.00753731222672292
0.0349804509291127,0.0471094612165959,0.0101012624391325,0.00918994865762238
0.0355294488125424,0.0425597240259767,0.00945629984859945,0.0079770774960399
0.041652357047691,0.0417604858446822,0.00920464813204744,0.00758097746638535
0.0436595572570454,0.0438037920208357,0.0102987416282963,0.0129365579814697
0.042022562188125,0.0470106609874575,0.0113029714538534,0.00724687966713819
0.0358645454604754,0.0388179607769769,0.00898266873376938,0.00885513395475067
0.0365017745123435,0.0437473040365357,0.0101821786117586,0.00742632826268649
0.0387978004510791,0.0420028943169944,0.0099302673520095,0.00710084241027158
0.0420824517006334,0.0438748568461732,0.00821757492242067,0.00925092149967648
0.0383955336455277,0.0482370149413162,0.00960824876173403,0.00848369468482382
0.0456074093130803,0.0474289675002475,0.00845381732305709,0.00543838346138034
0.0394044497915535,0.0439919564634835,0.00862972479446798,0.00847733693105779
0.0525405969609078,0.0461098762157789,0.0148053500020405,0.00446858120170129
0.0338921827824306,0.0437817486326468,0.0114739432982264,0.00305068244319926
0.0453052615267738,0.0449975369553087,0.010139496352606,0.00300271828968602
0.0356168738876584,0.0345019949733131,0.0132568491166821,0.00358093110964571
0.0358947942587386,0.0407120404385332,0.0123585621940894,0.00417412294341685
0.0427365786700602,0.047326179802229,0.0128251804067474,0.00397182506345171
0.0386946295298694,0.0478672222908483,0.0132222493625094,0.00416137993130278
0.0414171939175565,0.0348662494504706,0.0130791808336858,0.00487335990027247
0.0431871283835476,0.0413448321623344,0.014898001072217,0.00374956996608688
0.0399796807435786,0.0504006682485149,0.0134497077640226,0.00702475014325713
0.0421304576672607,0.0511103264005226,0.0142836197603924,0.00575513590218198
0.0315967710893874,0.0427365573566446,0.0160237202572568,0.00730259676107941
0.0509708906457044,0.0611295411576744,0.0144286013509704,0.00582409090781725
0.0535880535106557,0.0400295487306349,0.0153508307241914,0.00811827796897033
0.0458587890572418,0.0585949767991969,0.0164703118958795,0.00487001041023238
0.0449009720190821,0.0538714508636745,0.0198097773892396,0.00668248763488721
0.0512759559650286,0.0520809774994737,0.0134136365835406,0.0123636927043088
0.0548956672065882,0.0652007382468076,0.0151056340921751,0.00497568031014545
0.0562016471941757,0.0628434088477271,0.021333687212094,0.0104239609033487
0.0684634847888758,0.0740211782273836,0.0183516345469957,0.0124370545066819
0.0628050450805521,0.0921854909251647,0.0237202530936287,0.0161855041041638
0.0666632807312391,0.0862803628210692,0.0246872404404898,0.0287966972862893
0.07503146366651,0.0903915044263016,0.0277143272162445,0.0271609915727352
0.0930643649508544,0.0883250493721358,0.0215350175346471,0.0176981674659299
0.0760188863712572,0.0878827559816109,0.0180982558335404,0.0129397836898526
0.08849780678859,0.0863977753582943,0.0193592591244016,0.0158179177738406
0.0997682175127502,0.0923099233578093,0.0204333032156094,0.0283441199932703
0.094309974305812,0.0787911584333448,0.0219674980144567,0.0332647893309744
0.083047028752083,0.0871944116162919,0.0204295898441604,0.0275397170503694
0.0824192841102448,0.0775386995139927,0.0213363799541393,0.0101843542588254
0.0693402724846062,0.0959226489401334,0.019422837857416,0.0150966346578743
0.0769505773692929,0.0726346469276329,0.0173213362240932,0.0291277038955161
0.0878249970659523,0.0847036776414709,0.0186433363897792,0.0311173948221321
0.0842270943718374,0.110256155721373,0.0308899059711915,0.0270952253469418
0.0843931884449126,0.100146468988003,0.0196541816460986,0.0221274517231041
0.072133794651337,0.0930875560810171,0.0198041119238869,0.0253042072165454
0.0732560057279644,0.0700156055773334,0.0191038803113598,0.0129060039582815
0.0685822507734501,0.0587671353114504,0.0219297865989328,0.0143446536141348
0.064918985073426,0.0747214356574568,0.0153460877408262,0.0215034912696323
0.071869446404978,0.0862290309016362,0.0160319610077501,0.0118004766479365
0.0748490398833031,0.0731494554797757,0.0190428378847791,0.0127017870363965
0.0982104442530009,0.0762729940175181,0.0223171334117962,0.0186412056953156
0.114421089506991,0.100155216003638,0.0262779942596774,0.0451022386740888
0.081868718286639,0.0875216184417107,0.020919003748123,0.0260694133441932
0.0808022064935301,0.0836520435495179,0.0208786675715793,0.0177139509814334
0.115640346233731,0.0918347159656659,0.0167735835921871,0.0231966315486246
0.0867674623036659,0.0614828484973033,0.0147984877454444,0.0116708900720049
0.0962184861827922,0.0859923610412559,0.0203064758819096,0.0203769316401733
0.0562728602851159,0.0631388940979214,0.0144625466918189,0.012057037603545
0.0620440826286584,0.086098997238369,0.0177108317297601,0.0158610431918488
0.0693836037807314,0.0730640765014704,0.0146148147258673,0.0223016239205363
0.0714323931721376,0.0618937311338206,0.0167108671279879,0.0115198401622222
0.0681575311158789,0.0606102617258702,0.0185947546422937,0.0103760885068204
0.0604704451674249,0.0655029677028646,0.0176009128170627,0.0116178882091867
0.0652731034870399,0.0602278675735557,0.0147406836896673,0.00667287818873026
0.0544225886841302,0.0789510289821181,0.0125025094368649,0.014252709404704
0.0624840820688708,0.0727842684949193,0.017684272358812,0.0139221338881599
0.0558247266171818,0.0771574779291552,0.0155036257633017,0.00963591760457169
0.0478165442844356,0.0661971018465354,0.0140537459885376,0.0105661071853273
0.0704850746972457,0.0906405887711199,0.0138898039116296,0.0125431505259396
0.0238645695611964,0.0465073921888628,0.00623990233432757,0.00689777726418613
0.0195412961082607,0.0494612380053331,0.00525992991112606,0.00603304935296222
0.0171304919010437,0.0387183370280459,0.0070252582266009,0.00780769237512001
0.0177060560406835,0.0415211890358586,0.00602519232396935,0.00765281006145221
0.0209115182428375,0.0540018231850352,0.00819567620633684,0.00768577761061235
0.0198037216285411,0.0486004492226297,0.0124166524390181,0.0083853493735651
0.0183481952198895,0.0458282530421816,0.00813694436975728,0.00808109144422147
0.0218621066033835,0.0485758731186951,0.00577541866880902,0.00832024362114486
0.01901744499432,0.0482676237402593,0.00729314832538541,0.00767251750525359
0.0255568552914758,0.0462459523020952,0.00689994084737453,0.00616113780689657
0.0307762952934414,0.0542380599596523,0.00716245756645651,0.00914367765932534
0.0317339678786011,0.0484798713127891,0.0143045316658878,0.0121101050407947
0.0289046354663867,0.0564908402227608,0.0146368604706525,0.0113727445386576
0.0313574310594196,0.052493794928053,0.0199644807747179,0.0107884549959749
0.023798757028256,0.0537302225450775,0.0159358457023574,0.0128640380365341
0.0304169994899182,0.0566072231948584,0.0153376020525257,0.0107279156911353
0.0297876202154324,0.0517373763645189,0.0190731000767329,0.00761809619055391
0.0328128529165488,0.0556376343533875,0.0185163372104794,0.0114033755326579
0.0310762915265096,0.0565156735481756,0.01626555060244,0.00884266795058213
0.0348030126701733,0.0559267677622409,0.0152308949748269,0.00726096799189028
0.0364780930650506,0.0616292993269369,0.0151414323535791,0.00492151775806308
0.0296891055987138,0.0528207190146546,0.0119488571307268,0.00436418406100426
0.031471358738292,0.0686034358149265,0.0105783026068373,0.0049002960054096
0.0364547273668499,0.0537293249305372,0.0165257255448229,0.00472371718857612
0.0451459179353476,0.0659411022090489,0.0190752403714301,0.00979877376728068
0.0453348966488669,0.0675635577299187,0.0166023951126819,0.00984310750864551
0.0601140933511161,0.0602353386385017,0.0139748886594198,0.0147322631965426
0.0533079594136789,0.0797513560317845,0.0192631894411504,0.0123443094695389
0.0519044477690826,0.0736355301676999,0.0142936584638954,0.0132202438811449
0.0588553725320023,0.0718446928615112,0.0149397013407635,0.0120948230924798
0.0444411152349636,0.059743563206587,0.0135851425537543,0.0140039739868389
0.0525279856507816,0.0884321369153269,0.0159206572908455,0.0117077870752018
0.0572058421982809,0.0681047861971777,0.0135087477150244,0.0140266016597506
0.063595371940971,0.0879287677352358,0.0167306854618332,0.0132090439865269
0.0440896477767223,0.0710814404157848,0.0143491502521747,0.0102957390777465
0.0455016579751525,0.0629409130408401,0.0151994752033428,0.0121323087739114
0.046214789221166,0.0823813169867551,0.0135094787071975,0.00849927096500365
0.041065224918317,0.0642497664683239,0.0146806553267145,0.00708438114558016
0.0411461892199377,0.063129565015076,0.0120888079836728,0.00767953232328333
0.0460182782227256,0.076911755894004,0.0137460057464178,0.00788856533352669
0.0430631967622123,0.0603403521968925,0.0115003072983074,0.00821449547697622
0.0380465052624119,0.0676025520100972,0.011710006897258,0.00715850594543606
0.0430100919416642,0.0641419480173186,0.0125279792312586,0.00618091662892867
0.0565176451543513,0.06269147943427,0.0141009156051381,0.00657605720964079
0.0448525491584677,0.072979802882818,0.0113916552902607,0.00600886141717202
0.0406337188700841,0.056945471838853,0.0141720834865374,0.00666554038353493
0.0434458968284331,0.0726598502029528,0.0108286390204441,0.00821653548354665
0.0412128417088784,0.0718950432720547,0.0101235822927773,0.00811163455973362
0.0402835418371811,0.0632935344315231,0.0102116996679072,0.00724382974260053
0.0481662019961637,0.059708374899944,0.00792170489908115,0.00704845740314105
0.0584740771155757,0.0680961685383163,0.0112960159818044,0.00925886977778713
0.053495908860035,0.073969903433491,0.0104567337369614,0.0053468536606988
0.0499331519402798,0.0743865896073107,0.0116098536228921,0.00684419729583292
0.0528256026329198,0.0669388253386668,0.00866837285482564,0.0069662548824779
0.0511672238426796,0.0728011389923287,0.0114352969103739,0.00730023984371111
0.0479831804416693,0.0649487723831714,0.00977026094420858,0.0057943248796225
0.0456499950686306,0.0718342606054633,0.0129179281020417,0.00719500010764317
0.0303723381842863,0.0687126881067329,0.0123085511471092,0.00615405729029351
0.0426973597938029,0.0677548967091219,0.0100528898578124,0.0068704459350113
0.0476726850449446,0.0584082121591161,0.011115600176708,0.00593509363356303
0.0188473970153084,0.0305809300648965,0.0100071892296597,0.00251189976492329
0.0150031749599361,0.0279852323730037,0.0108104562324981,0.00271019104665584
0.0148512300258446,0.0336073639109123,0.0106093889575226,0.00272618608618549
0.0191276278480526,0.0298083917217967,0.0102071786248787,0.00304235967302441
0.0162932355155052,0.0279339549846885,0.00936728685996427,0.00261788269783628
0.0179735213329495,0.0282100967894399,0.00900640915299021,0.00285819451252671
0.0153996234429343,0.0351653652326965,0.0108627227663855,0.00240408517253499
0.0154609561005715,0.0277410158077338,0.00999141881224299,0.00246622960830579
0.0174910887371675,0.0275772423558313,0.00793286812097334,0.0028686760259935
0.0168030896076574,0.0286505331186739,0.0079479707554343,0.00203274730924137
0.014328214254892,0.0284220569718776,0.00969430246502059,0.00243438535188817
0.0169731513261026,0.0311870638672716,0.00934035308306672,0.00214100783624604
0.0182224684955348,0.0279260858568013,0.00757715444855241,0.00235058923303801
0.0146616112030297,0.0251938584761323,0.00709297131350129,0.0029110341654371
0.0142349183285628,0.0240595359066823,0.00484465288958562,0.00187210798519969
0.0157876619432349,0.0231144299140727,0.00559313326877026,0.00300469056003147
0.0188122778986251,0.0345770051594742,0.00756912227409046,0.00606507629792014
0.0174350713500433,0.0290712230276437,0.00802684642401125,0.00517087160430142
0.0190156273521076,0.030475873536728,0.00925862720857905,0.00615624824945253
0.0225218719759032,0.0242052983335896,0.00948169944860721,0.00705945248664142
0.0159100410314612,0.0227628037847095,0.00808740578276812,0.00751568057553612
0.0253927364687548,0.0289789966860544,0.00966830631907219,0.00798363803891011
0.0152047320875463,0.0274134028898039,0.00849796338120476,0.00695908120389693
0.0168126473235492,0.0273916129571685,0.00729479671608134,0.0073049804547323
0.014958636047345,0.0212195132234802,0.00844427876501988,0.00663124533611328
0.0260659356657425,0.0371111215392767,0.00697234018861771,0.007452604321409
0.0268062174574125,0.0439159922014468,0.00949957641853529,0.00782736789300438
0.0307492187646695,0.0382889230927711,0.008170726288274,0.00823081443515637
0.0267700522575982,0.033157061111543,0.00761853034075528,0.0079838584764581
0.0171700522599207,0.0301035119812467,0.00796798442762856,0.0078701240471383
0.0214993352315415,0.0333594823312046,0.00786153840738163,0.00804216639717399
0.0191909719520555,0.0297168374042799,0.00767352206734257,0.00790583435034064
0.0190348073820404,0.0355952156633959,0.00760194360840827,0.00820149366492635
0.016782620940185,0.0372928725759669,0.00758676625349376,0.00752933957060796
0.0210976938818249,0.0341566962002007,0.00762564483426393,0.00586218075377621
0.0193746505463853,0.0408142915614026,0.00862980816724457,0.00732575180179425
0.0207606765935242,0.0312797090218876,0.007042508965582,0.0069513209068159
0.015656987014502,0.0418827604201334,0.00715459675813148,0.00545575074360527
0.0203156356817861,0.0310204964199189,0.00737068510210519,0.00618087672815032
0.0168296855520842,0.034864677271126,0.00775333643247931,0.00726461668842345
0.0168833379656104,0.0395772359786549,0.00944426500268653,0.00586416534533385
0.0160654976318306,0.0257242607662435,0.00926272970013801,0.00692043672512445
0.0177217468719403,0.034939647757789,0.00875945606197555,0.00828524711809313
0.0169402535368995,0.0283304497975108,0.00864127366456071,0.00688364913890681
0.0167619897588306,0.0327757902673783,0.00708626064422521,0.0060568314023473
0.0186858175807849,0.0238555917778329,0.00782065531867765,0.00550000036724747
0.0187957625266351,0.0289455424488768,0.0085721526654696,0.00608924995664033
0.0166191893440003,0.0322847094213647,0.0070858400469012,0.00588029408631954
0.0200954172681973,0.0382882854622581,0.00891010191744166,0.00517729162948824
0.0179311115039807,0.0359217800682275,0.0078641697569747,0.00646570371142928
0.0174262628208377,0.0336079876386354,0.00868406344973697,0.00615769041394754
0.0198035819147617,0.0329235979577374,0.00701956615734963,0.00676830768421131
0.021539714040993,0.0314979753900361,0.00673243970895224,0.00656380059262746
0.0207725430605833,0.0309282934668953,0.00673947398321439,0.00587008645736055
0.0153828823416014,0.0325388458033638,0.00621206039299534,0.00560228077081089
0.0208422772708102,0.0265814144047676,0.00786232259736966,0.00677350214119124
0.0205494948150894,0.0259283082543715,0.00794078283439241,0.00545140798402171
0.0209717072012576,0.040185587500032,0.00686270124153415,0.00588874015348465
0.0185469570967342,0.0262180635665726,0.00902004924226642,0.00481170336608815
0.0206317277456334,0.0299010039557814,0.00875276606907347,0.00569356913846972
0.017469634554762,0.0257940518192233,0.0105649080396715,0.00528441517765147
0.0123271538072728,0.0204957025732904,0.0101805852636131,0.00318683272550949
0.0160605819069055,0.0254383605092193,0.00820329921800832,0.00507522712065559
0.0188321170583525,0.0201862720366234,0.00959509372207674,0.00477313092172492
0.0128802233744401,0.0265097189259008,0.00699621426888872,0.0109191615707374
0.0224538967001972,0.0283054524397744,0.0089983809638479,0.00292497633429121
0.0150570120516484,0.0235506343180724,0.00719314378515232,0.00449859403164555
0.0168470612261893,0.0250246664476659,0.00812618859716468,0.0043410990637134
0.0179614480133178,0.0273166987665896,0.00910297736772003,0.00741064825524536
0.0164404497867385,0.0238587251614959,0.0102122598869028,0.00384518939981216
0.0182413219611145,0.0241230019157229,0.00905402390076753,0.00462777194014424
0.0169506542959055,0.0230046850057773,0.00884817162781133,0.00394149705394549
0.0195332289782774,0.0316412808378119,0.00857281780897939,0.00440561827390409
0.0197240733729008,0.0376726603938728,0.00775533829756736,0.00317116362291155
0.0149018504864395,0.0312412054826212,0.00712391593269122,0.00486811215994377
0.0171044703025365,0.0356017607799788,0.00695067825762624,0.00529108234959473
0.0359840044608621,0.0405693330677822,0.00846899809866407,0.00504913551097734
0.0244280659484927,0.0459703389616248,0.00764937443926513,0.00580652892882734
0.0262831050399988,0.0373947564687161,0.0103551730910898,0.00446507428485048
0.0253353444622426,0.0345771458958143,0.00960317916134265,0.0057886624206193
0.0314618062789372,0.0354873540884819,0.0150715915855171,0.0027663273717117
0.0308261499876074,0.0310309902898807,0.0097251761255782,0.00465639323785458
0.0385126895421161,0.0366286748428023,0.00820629894317542,0.00328145784450748
0.0303080070920387,0.0352152303004967,0.0113990987763918,0.0042656059474653
0.0314656301141856,0.0332115758879042,0.0110334016952633,0.00286630360135849
0.0267943329193575,0.0321262905118711,0.0120728154185379,0.00305570742131745
0.036197101466909,0.0364520350375734,0.00965664853202115,0.00326237441691713
0.0370836814744121,0.0459722329365839,0.0126289663346658,0.00326654646567082
0.0377275229738986,0.0318869631755192,0.00982231120622969,0.00256968525544549
0.03292033845042,0.0289114504728396,0.0108761121577596,0.00257880692115396
0.0347382679524916,0.0328154664298641,0.00869797877247982,0.00220292565265534
0.0314084164147714,0.03324214300819,0.00971735960445712,0.00280916980970353
0.0366571393217454,0.031198611984751,0.00969582926687017,0.00281353405500042
0.0298628962143489,0.0398283240002744,0.011669486516677,0.00244957506524859
0.0368482100986695,0.0287728638531025,0.0105096811439047,0.00238336421849588
0.0303692686429263,0.0313270448248809,0.0119742551104041,0.00203186131784765
0.0364923095571459,0.0384875321171525,0.0105156253336153,0.0027033197050437
0.0356391594000656,0.0336684638262352,0.0111870082604383,0.00233258756663316
0.0372648431227531,0.0441323548518052,0.0112764017588676,0.00254580525306478
0.0330981472501802,0.0404825024881058,0.01291196261296,0.00263491546935463
0.0418277972734081,0.0294240417460736,0.010604020962072,0.00232580337481555
0.0361929834106141,0.0317364687883705,0.010678855082378,0.00210795981038934
0.0373288288952382,0.0399933384585522,0.0112563169645425,0.00220035408758877
0.0362735352252922,0.0350113661388412,0.0129860239280184,0.00219291019796545
0.0468881723236454,0.0412182774896884,0.0108415411920908,0.00212984523269479
0.0322987912205777,0.0390078236083103,0.0132296981447242,0.00268088158909407
0.0333834553561441,0.0492301504029686,0.0124257692134722,0.00265023914154901
0.0386620409058951,0.0305989298362385,0.0106529505374807,0.00269074483170828
0.0329868012499795,0.0319920452731549,0.0135715104830129,0.00205296025920398
0.0305822715725201,0.0381640434847029,0.00890948490352843,0.00249326876284779
0.042417049279476,0.0318953643808947,0.010057388365526,0.00287103571117162
0.0408640600226877,0.0358059708556489,0.0124877648197266,0.00222704111621773
0.0358348199706105,0.0392023411130271,0.0110800460476824,0.0021370209221312
0.0355236547027307,0.0442708963037871,0.00899668469705249,0.00220348609711386
0.0454213048096466,0.0302918992685087,0.00941423513980355,0.00251489238270629
0.0372177629745846,0.0340456234726238,0.013540241499665,0.00217585699346957
0.0332504868810598,0.0364918171206199,0.00847571292514644,0.00156203942996091
0.0512133826215194,0.0418666995348422,0.0127979578709029,0.00191363791558185
0.0371322383109465,0.0356785364936009,0.0123973893753102,0.00243366111519621
0.0297562069752461,0.0312159268459111,0.00872852709328019,0.00190243003737796
