0.021236045995677,0.0276435604591884,0.00889447557423735,0.00544660613514602
0.0232878598134529,0.0251710268945274,0.0113582607131018,0.00919810271453458
0.0249711401435751,0.0279224884570611,0.0111826784688685,0.00812781037133973
0.018750098959845,0.0217314654155672,0.00866236585896241,0.00645568013377877
0.0222628693900664,0.0221022461245236,0.00983656082583739,0.00655317536752038
0.0188474668814608,0.0289310525899364,0.0113030108872117,0.00728884127187271
0.0189515431783309,0.0220522505339903,0.00849178463627669,0.00810911172547127
0.0175742308394398,0.0223295628543684,0.00959615282478537,0.00714181963770121
0.0226288352843358,0.023772898039664,0.0110365421636634,0.00823399111631777
0.0187392479272531,0.0234638184525336,0.0105557449410364,0.00874032174130736
0.0212118658853581,0.0240198891969559,0.0126743446528407,0.0101203481105539
0.0215441189162368,0.0265234053205325,0.0123138523614695,0.0102816831671578
0.0243194662601077,0.0184262090643,0.0104203469102496,0.0115381960498719
0.0240315903180105,0.0220906712616607,0.0112191940942401,0.0175632635757441
0.0245427230129578,0.0199841715768954,0.0109076213057791,0.0101570273694517
0.0301952618616607,0.0215046768216443,0.00754791720198457,0.0103118927759392
0.0231072100464715,0.0205603742979035,0.0124388159525753,0.00947325661391848
0.0249162241101397,0.0257024207673375,0.0110418870984705,0.0101996702189585
0.0273717812216665,0.02637076527281,0.00823761287659224,0.00566904043045648
0.0252818082470992,0.0237988243770881,0.0090895609328263,0.00587478681884645
0.0209331088912769,0.0241038759425227,0.0144541224387337,0.00580799597464315
0.0324195297179019,0.0316836839248784,0.0113173979374065,0.00497963150765107
0.0285880321780695,0.0297225100538495,0.00949746323996238,0.00592331757848331
0.0314727201900488,0.0257395649312862,0.0108296125745381,0.00420696265033455
0.0282606515278875,0.0297313929915708,0.00869470069877922,0.0056972498994008
0.0242362618533954,0.0273824984522309,0.00770042706799044,0.00531095172917565
0.0277174226783322,0.0314426595166243,0.0110761821212965,0.00640694904864549
0.0309233060278301,0.0272778331353284,0.00860652083656764,0.00657175516558541
0.0321256200459014,0.0373776055944962,0.0150793520393254,0.0058631635788446
0.0239920912662648,0.0284136826055691,0.0104166229407932,0.00519590796004959
0.0357565020305288,0.0326792317127601,0.0115264271834061,0.00370391464422941
0.0276178531999668,0.0297141902975209,0.0121837711823257,0.00575912923501552
0.0256923246953697,0.0230879207826446,0.00844507650216897,0.0039752918039254
0.0285022843205038,0.022379465635198,0.0103284671263645,0.00389874921034584
0.0356082301596458,0.0284981369607673,0.0135606395334963,0.00387236070502313
0.0403022989695701,0.0326136039700558,0.0101853009307543,0.00466493138942512
0.0296293529914523,0.0346337228449468,0.0105221181424577,0.00462731076635527
0.0255099169574157,0.0286514834798001,0.0100880272664918,0.00319106718544443
0.0383885861287119,0.031814084445415,0.00992769127387234,0.0032140765430272
0.0256811719351446,0.0325675941464968,0.0110186280314352,0.00395841520894066
0.041493109685074,0.0339754489331197,0.0126062198837252,0.00302367093645798
0.0333018695507174,0.0299163884766595,0.0108592643502988,0.00247986544291764
0.0301817633445641,0.0368589778849457,0.00935633726989028,0.00267800709945608
0.0281623856212887,0.0241082733613772,0.00733013557438783,0.00414361896056842
0.0285333185554404,0.0322413516820043,0.0131354552171986,0.0030577116185376
0.0292381561118058,0.0275225974075893,0.0106410952367703,0.00404214224604531
0.0313038605995521,0.0261223116892549,0.0106812272119862,0.00402914382473746
0.0365958421769817,0.0315792065582202,0.0122633714919067,0.00329862049171817
0.0381888778865713,0.0290509203790023,0.0111091396729227,0.00344635928319309
0.0343776658644736,0.0280208026197536,0.00922313056812949,0.00348281901909553
0.0284426769780031,0.0253816574206146,0.0117340267498609,0.00395728674988594
0.0332938246326577,0.0259619026333535,0.0152130723229992,0.00308091493494186
0.0230275897406421,0.0273998376117639,0.0095314004284981,0.0041802710359451
0.027522629584276,0.0320452521017276,0.01123821512552,0.00434897311127204
0.0300386542823664,0.035052099561848,0.0115654312777106,0.00345001784412563
0.032988440753217,0.0367193172844952,0.0106311319578454,0.00489639547781038
0.0332650854041252,0.0358170600909631,0.01053725079233,0.00382258245553495
0.023518033341993,0.0333727686059123,0.0112660682910977,0.0046177626040079
0.0242925544953722,0.0319764392568886,0.0114579866131501,0.00440904569223865
0.0329447144604528,0.0284667710587158,0.0134167684690629,0.00424145504689491
0.0222423877030538,0.040301672627971,0.013714926752247,0.00555630060496437
0.026784756624316,0.0572277457707797,0.0195293452794326,0.00887719895203055
0.0260643708108339,0.0679285495920442,0.0201548024226039,0.00648466645619174
0.0225083331187744,0.0494164466016628,0.0173850579959676,0.00817903895801675
0.0220541567516225,0.0411416295870147,0.0131428054023865,0.00844366106759678
0.0206392317631993,0.0510859517261093,0.0181219145107187,0.0080262972815284
0.0212528193061333,0.0498497627526125,0.0153440479056604,0.00774686108922899
0.021371572497332,0.0631932810650737,0.0217002690614163,0.0111109884948944
0.0232822390642028,0.0565706197507115,0.014979678590508,0.00577403243603229
0.0343302831629857,0.0622452693421579,0.0153334498864486,0.00644982512201488
0.0326612082573495,0.0684719226877131,0.0220789208512923,0.0106806973118591
0.0284546823080419,0.0563882799026046,0.0153451702097108,0.0088193091219458
0.0261483627920481,0.0627798220858964,0.0194518360246631,0.00959859829515049
0.0228481527060547,0.047938809164916,0.0220767237280615,0.0100544179087331
0.0259878317189326,0.0469322596208099,0.018867831466585,0.0113689355784155
0.0235006733229724,0.0530907852293967,0.0149833500426961,0.00767867648092748
0.0173475805195153,0.0508369797935352,0.0131436483885337,0.00860721506623521
0.023272334778325,0.0545784711560406,0.0151268717102342,0.00764709894635004
0.0330298462052041,0.0505212986352329,0.0169358084764975,0.00626538314982473
0.0228788054760861,0.0563315762409218,0.0152027458486136,0.00501751410289274
0.0269046283863996,0.0605823227112012,0.023243831317917,0.0070396021365642
0.0219256498391751,0.0479189136850055,0.0131214074689308,0.00452187667700463
0.0311816183612848,0.0813763459768089,0.021755350643354,0.00511743000293227
0.0259977832867539,0.0718276429011661,0.0154164897655069,0.00545855757400013
0.029104197064569,0.0667895191990164,0.0183852103590524,0.00437099453207771
0.0300695289771388,0.0761850557593843,0.019564177897043,0.00358301578396533
0.027243590384244,0.0603688828332191,0.0161033111424143,0.00559999066127884
0.023646821308951,0.053500828159877,0.0162820774791466,0.00416181416985209
0.024202980807667,0.0608840866709605,0.017938269197141,0.00444820478288675
0.023791142502926,0.059385234199439,0.0153029758795122,0.00406649806386536
0.0287196114232543,0.0563509570762322,0.0143549985945312,0.0031507672419991
0.0355722829658918,0.0516961303151965,0.0160801776081217,0.00382447520098006
0.0228445691327412,0.045510387117716,0.014942278606226,0.00409497579192917
0.0317772051324251,0.0690167435071181,0.0208109012084812,0.00509945659470843
0.038665491437001,0.044206065645262,0.0143035694219606,0.00435518481163641
0.03153405547598,0.0618824794729208,0.0165400667424575,0.00425950625691045
0.0335238562518118,0.0493931758165964,0.0153010895924917,0.00501644371631366
0.0263184669718488,0.0691470995859833,0.016947044889753,0.00459019643867955
0.0379107337272648,0.0540270921930646,0.0156699005136855,0.00443599951399323
0.0310488228901158,0.0583099105092346,0.014817839142058,0.004177611309955
0.0246159319761762,0.0476353335065422,0.0131986153640551,0.00418799992617779
0.0341397923602691,0.0638996688449483,0.0183467752119615,0.00412416815163093
0.0343111227799765,0.0489436919030847,0.0143228521405146,0.00417371016366396
0.0263555517914321,0.0524128428251504,0.0172205028652539,0.00409521937222105
0.0265336958671904,0.057430113897597,0.0184227082622767,0.00369587853330391
0.0297477584309427,0.0567759676890006,0.0158858877716559,0.00414771515054453
0.034961407155923,0.0584513935250523,0.0151076910715124,0.00404224457025697
0.0288861724000793,0.0460574235703683,0.0145150159030652,0.0041846533791976
0.0233143047974023,0.0683953163123179,0.0167647732314816,0.00365237782810881
0.0347183282534565,0.0451611436682882,0.0131041260060838,0.00334446338425688
0.0332366318640549,0.0543367245972698,0.0121784266634361,0.00271706429729332
0.0263892497880101,0.0560087239017268,0.0151301986145311,0.00385220136917135
0.0288074472957781,0.0344546945006785,0.0132841832058608,0.00319084562029063
0.0335688315011459,0.0544121707762089,0.0156789398213623,0.00408567912035638
0.0258902893241576,0.0490548142367771,0.0153892696996762,0.00338697766985587
0.0360893338107208,0.0497891141798773,0.0142482564840508,0.00363030506091413
0.0269914672762234,0.0440084919483395,0.0167447977817432,0.00384248835154463
0.0283172951629097,0.0640733330193883,0.0159834773059181,0.00413255783689039
0.0275888107117355,0.0454145374809418,0.0127222310016334,0.00416054204291537
0.0256015824019201,0.046477927541258,0.0131892977082874,0.00341245062778464
0.0289771711480946,0.0214572187775069,0.0203585171866778,0.00656586170129715
0.0238159056243833,0.0172818277560869,0.0215174322904332,0.00491471566189087
0.0257546849443851,0.0226559356940936,0.01833988530659,0.00636119975396367
0.0249234567523834,0.0251033061407925,0.0196515498111897,0.00573870896250489
0.0201746451112653,0.0203914634216366,0.0160854909961616,0.00429174105513446
0.0248738903489621,0.0255842011762642,0.0203869791878585,0.00486174088049921
0.024790437235632,0.0209248907191794,0.01900110499358,0.00562952325304313
0.019493668595186,0.0226815180427617,0.0165439747960199,0.00460158513591032
0.0287078152057807,0.0241375083456886,0.0249984554077842,0.00704339486277882
0.031082628810391,0.0223764699055274,0.0209716284649638,0.00421885279147843
0.0237793845284344,0.0216410036373957,0.0200440723692376,0.0046453412815355
0.02993947238581,0.027249048665541,0.0158480509505421,0.00366082561577417
0.0311236052284926,0.0263571346248083,0.0229740074873662,0.00695450388612069
0.038473958918825,0.0252247592953421,0.0239113810923231,0.00608603392259431
0.0375315197861246,0.0299751184929649,0.0259627945879647,0.00936136610128
0.0325334886763438,0.0197069851416324,0.0247710422124543,0.00834727469882483
0.0550711457294632,0.0238120966342947,0.0243939940098761,0.0078356223246309
0.0472692124201198,0.0246870885222462,0.0212165343862904,0.00754879401349676
0.0598689339907477,0.0235159054822507,0.0305249505276995,0.00585741152575563
0.0474349466842592,0.0224226363754058,0.0299539376326643,0.00629272601109538
0.063258955673778,0.0219066702903667,0.0295809183228971,0.00520339607652425
0.0525816566191573,0.0242168372130318,0.029767944280411,0.00703235071651904
0.0727943032850591,0.0206944458500403,0.0283573821306033,0.00559153368193211
0.0519018758741752,0.0200190118171219,0.0264039457736666,0.00536160025657343
0.0426445902934043,0.017918204505956,0.0256237528211967,0.00547761149009686
0.0601378547430749,0.0220154204363011,0.0426488996684347,0.00521682427494601
0.063592156114378,0.0206444699231965,0.0308950076874788,0.00466121241777132
0.066230635680954,0.0216931989120642,0.0536076174926055,0.00460533413507965
0.0526155382922442,0.0191461906917683,0.0434042936134092,0.00469231869658359
0.0551159085401793,0.0264947224054087,0.0342997993928827,0.00635379572810567
0.0607534261415531,0.0284480353963354,0.0311785951023756,0.00568784179863748
0.0506897690654947,0.0231697749897941,0.0378375406783003,0.0043003688185573
0.0436355631915812,0.0206431363562787,0.0264131454116968,0.00494093919637333
0.0652660692720389,0.0215087910815083,0.0328320303147015,0.00466704503879943
0.0537448796225168,0.0282100339876715,0.0309829399960255,0.00499339364680648
0.0556257219543142,0.022650491850687,0.0325112722422186,0.00473037801425939
0.0494737654298917,0.019897271602706,0.0338560438510379,0.00628166080764272
0.0554379932266945,0.0252915387690403,0.0334040108403667,0.00557970579781887
0.054752160758982,0.0228714671980532,0.0453549569552754,0.00494375105113552
0.0491380333864193,0.0298869026076277,0.0457386663380961,0.00476084703289468
0.0510238130366044,0.0274758464188221,0.0377515314293333,0.00440882076022489
0.0488996935151728,0.0257439909718471,0.0358405367039681,0.00453573434548549
0.0473923743892892,0.0264644968724915,0.0408932147791176,0.00457036827636844
0.0447876923998194,0.0232004884611314,0.0384738160380298,0.00409283886639573
0.0506148298977544,0.0226572872739329,0.0326279627292909,0.00386049021327013
0.0486880969609712,0.0219567587914068,0.0388147108240318,0.00357189942982276
0.0470042627701712,0.022927076162705,0.0302701575441595,0.00393012998464368
0.0491866410390179,0.0223684849147262,0.0313487191962968,0.00353221205098389
0.0511831961461507,0.0198511086752711,0.0317240146504613,0.00365963706537126
0.0465325246968701,0.0206946214403991,0.025554599968284,0.0033925010327689
0.0432080961023878,0.0215549222007598,0.0314842954996402,0.00273218985583878
0.0557661040259683,0.020361256548362,0.0358009475759094,0.00349714723594821
0.0422995915272969,0.0226131204011456,0.0369320590343262,0.0043111025262618
0.0543752141012532,0.0176505549981212,0.0347659527129113,0.00294828675584256
0.0445634341399004,0.0182122085503023,0.0311195859188054,0.00323830348846549
0.046079521782344,0.0215316052739791,0.0406454219115567,0.00342801090387967
0.0512923666351601,0.0202268432996142,0.042463722544997,0.00314368619261366
0.0562897333074732,0.0205867469659757,0.0292915843531941,0.00317031557386389
0.0443478234370352,0.0220332179794251,0.0317470804720924,0.00286749234142758
0.0618878426801668,0.0224056361579209,0.034460566419533,0.00312590093285129
0.0238410317063581,0.0271303897978119,0.0225188523435659,0.00569534491331194
0.0219028482905555,0.0255958529205466,0.0229887662131944,0.00560771492890551
0.0217815613458742,0.0251471928607643,0.0206371724572791,0.00525515292928784
0.0212651038424535,0.0259456763172929,0.0219263453969762,0.00398538730399991
0.0234503689590188,0.0272395136176778,0.0196028101336398,0.00753024894391389
0.0268830441778055,0.0299147029568002,0.0235597391375294,0.00527817992155163
0.0246132533061233,0.0287876472325069,0.0233658392104114,0.00503915486909219
0.029553039930945,0.0253949948908531,0.0201352828965411,0.00542684389210604
0.0251842504277385,0.0326636064246575,0.0265971088813893,0.00557321056391233
0.0252294049523885,0.0306570341949717,0.0174755020428375,0.00575243163499084
0.0255090365911494,0.0316411819945872,0.0270484289593162,0.00468091310996911
0.0204102498867412,0.0200535095536378,0.0166504624797472,0.00724827525157788
0.0229352892653531,0.017796269679793,0.0158055474324684,0.00410114333064169
0.0259869917566915,0.0243957791218334,0.0200787174345833,0.00377334032057681
0.0229577891145828,0.0215667399130981,0.013211580272651,0.00538100813380744
0.0211270017360461,0.0266961866016867,0.0133802056113759,0.00419145951399321
0.0279470611608125,0.0289079115009667,0.017286356017361,0.00429413110652507
0.0346325899489393,0.0321924951546873,0.0149647760072441,0.00483770642938038
0.0262244935856953,0.0238816748706149,0.0135945358796944,0.00347251377800669
0.0331223882660087,0.0308758406735484,0.0147807955212678,0.00415696365920919
0.0282103813600645,0.0477964290273464,0.0199822146712704,0.00523490321783405
0.0306833048184955,0.0483980611170163,0.0205320330568741,0.00603919626939444
0.0367675038230543,0.0522244335093034,0.0249868108995068,0.00674309468727306
0.0282233973175299,0.0361197686459805,0.0201046513431364,0.00576634185714333
0.0287852142112279,0.028580103505175,0.0137424763174954,0.00400794744232688
0.041034803351525,0.0302197550996532,0.0151341882300166,0.00485682079626316
0.0345791578246404,0.0254779875550725,0.0149220060418535,0.00484374746836379
0.0371802250975778,0.031168969091152,0.0148226771400099,0.00523783895559481
0.0503585754070196,0.0190312239150492,0.0122637246055635,0.00489827171186674
0.024143056029462,0.0228005482713425,0.014361933108617,0.00469986215159153
0.033503122690747,0.0221316936799608,0.0158472597495234,0.00310922444076216
0.0282972623289234,0.0225373291174771,0.0121507105892924,0.00274877005842237
0.0331910329264691,0.021602351119466,0.0120207526766809,0.00258117426787609
0.0281525301315959,0.0245212707458801,0.0125841563563536,0.00315458716611155
0.0383709132332686,0.0301011307265641,0.0134580278042945,0.00260463549718825
0.0289440517048348,0.0186884092656032,0.0126448863253952,0.00271911275000005
0.0277835373612917,0.0203102582975889,0.0125223299969406,0.00268638231154791
0.0307721338081343,0.0194499492483508,0.0126448590113085,0.00279420968886622
0.0298756566766905,0.0219444903212114,0.0138550013022144,0.00316387140063777
0.0250193744627704,0.0275668796734692,0.0135021542287514,0.00327654674466931
0.035627967229653,0.0235565615926366,0.0112781541593292,0.00252497888913514
0.0291396676835795,0.0227078306535868,0.0123262172070627,0.00248056582000042
0.0280874735181206,0.0181376230574303,0.0122268684607361,0.00259819914386121
0.0254466178261885,0.0148638083431479,0.0114139614499745,0.00281889056692094
0.0262692130188101,0.0192549391695071,0.00958426391697909,0.00273559044476729
0.0274091039481584,0.0186250248923974,0.0102419033711257,0.00225781531259018
0.0237093474420874,0.0199109224836279,0.0113089074535911,0.00242017537096186
0.0279074909020294,0.0243685068607426,0.0126788056740561,0.00218847631671437
0.0279776235153857,0.0207734149043663,0.0103485082253302,0.00250082012379639
0.0325077666630301,0.0217315673631304,0.0119111556519914,0.00257861364097186
0.0259163162152798,0.0178374672910517,0.00904124517357545,0.00237325670702741
0.0298198401680258,0.020133310690245,0.0103616966979005,0.00252802390522962
0.0271319109162555,0.0195302056373846,0.00952210276095456,0.00249291934541932
0.0277364296022629,0.0201235658921552,0.011490806406818,0.00235901296297862
0.0273762610151223,0.0210904795956215,0.00837980292098765,0.00226489860279444
0.0240614950642874,0.0215495652494847,0.00909268256958748,0.0026782242825012
0.0337251158120816,0.0259282534618184,0.0119650595432007,0.00332747269702947
0.023171177817768,0.0201617903278226,0.00839132806031877,0.00219885187237249
0.0280779297076354,0.0209618065212675,0.00881497975672673,0.00232870852166083
0.0251545423746461,0.0184113298732763,0.00706094326863313,0.00195395407856952
0.0310586290292114,0.0552599216105195,0.0261199624246168,0.0105322834871134
0.0318203354482123,0.047501342009975,0.0211465400253751,0.0106851239915037
0.0289926742850192,0.0475014031444745,0.0238306383804916,0.00987632453062192
0.0311690573328749,0.0566794282824902,0.0197013326186175,0.00784219199511848
0.0296303517292341,0.0540381384242872,0.0260254998848282,0.00997180901409592
0.0255278217809478,0.0379301819256769,0.0243565250403486,0.0111760686944834
0.0312144319610935,0.0527691082449918,0.0211467458219646,0.00814656282112311
0.0337340960887158,0.0451569227191897,0.0209654122427816,0.0111254650442153
0.0254303639331285,0.0529912974940288,0.0189442199803826,0.0110201143227365
0.0259611347913865,0.045334418292608,0.0241605219402088,0.00949444873283262
0.0381937059183239,0.0579505670301134,0.028062749745509,0.00854889149162721
0.0301263250495409,0.0708322854357937,0.0216710505443151,0.00887422638156001
0.0249725493298417,0.0588766210983445,0.0263769380107003,0.00965945390305694
0.026420663807903,0.0396552837092377,0.0238364347689496,0.0108437265560644
0.0301878646697042,0.0638612875531488,0.0233147105422344,0.0112068720892503
0.0282576724659903,0.0468455466105195,0.0239948197721351,0.0072861557124089
0.0345210608133788,0.0571972616238267,0.0238131060248158,0.0107264280072331
0.0279400567834812,0.055797130663508,0.0239278235016058,0.00790566856525079
0.0331380345786132,0.0580037414296052,0.0267269487393182,0.0136521027648043
0.0351319999457758,0.057487719505871,0.0282239543407973,0.00730078063436485
0.038343625303762,0.0663532456726052,0.0267313345205585,0.00945630539663557
0.0410019506218117,0.0564811627414014,0.0181943250367684,0.00722947238698902
0.039607421583431,0.0646241185398533,0.0305715661234894,0.0105167578848251
0.048060786951196,0.0539683904591101,0.0225612202738831,0.0111573238567881
0.0561221860125069,0.063062869990241,0.0243635259814322,0.0113793565219463
0.0449773088733501,0.0586425929327254,0.0246436408664657,0.0122210255888492
0.0400960942699352,0.0641852015055478,0.0252674564242042,0.0152403906329403
0.0397280270554392,0.0655737182508628,0.0301431612356363,0.0133622457903648
0.0480977954901564,0.0549526408734506,0.0239862195055921,0.0095375012032556
0.0492593446168705,0.0537946955139146,0.0323811020539056,0.011295211591675
0.061220020029741,0.0591714745580827,0.0416853953282582,0.011802713417733
0.0571488859301258,0.0617964976830215,0.0298061042813247,0.0154116047504124
0.043900272158015,0.06122188464023,0.0308357013226487,0.0132181067674715
0.0591546083447194,0.0539172733011941,0.0364269702580713,0.010178077025576
0.055716596292937,0.0515490048911433,0.0350568293417381,0.0137858719341812
0.0592776584633897,0.0560835034563752,0.0247985849169584,0.015117577212532
0.0426326843435575,0.0466582906451264,0.0260820499081902,0.0103248677474356
0.0441790524037751,0.0623260630526219,0.0257737598881685,0.0163781485924707
0.0619418359778697,0.0497470009761832,0.0310730761970554,0.0164529000056481
0.0589805363718226,0.0628097775224261,0.0297113130451006,0.0148282579860663
0.0460116241949411,0.0486637102208182,0.0257902444281335,0.0115624981313525
0.0509376267689081,0.0456311930576931,0.0328493679481253,0.0158573292480608
0.0438184564351575,0.044453136397537,0.0277268240629305,0.00811982740863017
0.0447164595399073,0.0576391273467949,0.0262891745278219,0.0084226118385656
0.0408589915062409,0.0445059285051983,0.0295162292803766,0.0118236482584268
0.0498042815873127,0.0498341617393563,0.0271439466312347,0.0148804275188862
0.0551956057055449,0.0416517259798976,0.0269704586934987,0.0114537741268897
0.0468408058889058,0.0337381922942865,0.0318682662738593,0.0143757535942228
0.0469062834870186,0.0502270365408347,0.0290002936717954,0.0112137485424629
0.0457831063574778,0.0534527030284607,0.0276881438527963,0.0123946403601964
0.0356809662742642,0.0372267719267056,0.0235289927167027,0.0103444921639403
0.0594944672326947,0.0553428938627532,0.0268822547554723,0.0110764337679111
0.0432843783733787,0.0454124883952944,0.0325013560214303,0.012857679329051
0.0620571556984647,0.0529329956775039,0.0267684990955386,0.0126890393421931
0.0525187521842381,0.0450206233083937,0.0311927957865719,0.0122501510047636
0.0522890869433209,0.0440481761405976,0.0270527969424787,0.0117039416722695
0.0417078243228038,0.0575686945677457,0.0274972946260983,0.0132113895933676
0.0528783104457269,0.0429064942498719,0.0239258565699492,0.0108991671577304
0.0436111213990441,0.0441733527379744,0.0239920912674367,0.0108762782561773
0.0454055088307966,0.0551480634727321,0.0267307286014561,0.0141427818202795
0.0183214038370568,0.0129183818327479,0.00548865235899939,0.00665863071394889
0.0205764090358753,0.0140429534592,0.00557137227816688,0.00599069540391618
0.0159328496972973,0.0232618508515249,0.00586852219612104,0.00542350892336661
0.0188912048919841,0.0188424299574701,0.00571367650053397,0.00700880103687401
0.0141321583994433,0.0204080443195038,0.00611654216574449,0.00791012377546567
0.0163313515701179,0.0193890864818935,0.00583894331409765,0.00597839614591629
0.0176234289826442,0.0178516277839509,0.00626159161414318,0.00585472088265655
0.0116409310179117,0.0157554217597205,0.00651853747776792,0.0059397441783893
0.020035812803428,0.0259194041321891,0.00586629160159551,0.0060961209415696
0.014723453206254,0.0170226911341737,0.00761787971187133,0.00685855961132151
0.0221742126367726,0.0143301723215658,0.00868027992339408,0.0074198463807966
0.0160896801925385,0.0218482575085596,0.00641892238624265,0.00613631834403146
0.0188896849769528,0.0167402835647142,0.00692443242777901,0.00894680012409673
0.0183731971101063,0.0179347012448708,0.00943172734949937,0.00780047763153111
0.0148919004920364,0.0173983305256559,0.00802547387258753,0.00760743980452116
0.0116450384253438,0.021025058190791,0.00925084274556562,0.00776110713422263
0.0144220465526036,0.0172739579734032,0.0071020035778403,0.00797794836048161
0.0181260981261549,0.02750962783399,0.00710587065304853,0.00942899292893175
0.015233532801508,0.020426619855265,0.00732644628633337,0.00609630428739284
0.0271021217565892,0.0271068291042431,0.00812329439330752,0.0115602129416036
0.023080357663101,0.0155234261163602,0.0065276274487198,0.00745613303723003
0.0313571147789945,0.0196094100791273,0.00842610492447962,0.00836687414110106
0.0140641330187486,0.022284701546469,0.00793875213708636,0.00855730514905236
0.0207286769517878,0.0216353806766985,0.00660817473979657,0.00749495805317076
0.022413210452834,0.0242298317525094,0.00727002780016613,0.01331961443406
0.0262435862143986,0.0309881379109586,0.00827527126758365,0.0109342064012231
0.0278742806053713,0.0227219540663461,0.0068187252088324,0.00800875840561861
0.033239144882704,0.0234633496531739,0.0114703155845339,0.00859289500214209
0.0301960967156018,0.0257446701407249,0.0130096063421929,0.00847872814628642
0.0245700121875098,0.0250957134674439,0.0093938270897437,0.00969507168040037
0.0280276326518486,0.0313132344113414,0.00759545587004195,0.0111889716758224
0.0305061057722405,0.0230593578926824,0.00775018102686402,0.0104833725496459
0.033881955839847,0.0324316698523599,0.00738744686769068,0.00807464217620268
0.0308135033322954,0.0268317383075254,0.0103533015924923,0.00657781340401196
0.0305208837958027,0.0386617753113858,0.0113541407129425,0.0081097345673983
0.0360628952864857,0.0363887976206958,0.0109329983745712,0.0077807862968694
0.0450208671747523,0.0268773637412074,0.00962091336072273,0.00323531284417864
0.0450138416909283,0.0282347726771139,0.0137405637882692,0.00505747626810394
0.0471972759398952,0.0463166435656496,0.0127301470630584,0.00304583441737107
0.0434337483935529,0.033447651660138,0.0212484579750985,0.00375445082591365
0.0469286119062972,0.0356339955828156,0.0105296853312418,0.00396773601060356
0.0513899696107746,0.027910105693091,0.0118882896228023,0.0028484824236161
0.0378786884615204,0.0353129119645417,0.0112601707516949,0.00230844005538265
0.0522218622277093,0.037109687166438,0.00968770006979973,0.00277945382550445
0.0458532731815559,0.0261160690343271,0.0105213213879075,0.00240662430047435
0.041534534776471,0.0249850777683796,0.0104631049616923,0.00251122463860137
0.0512965325510758,0.0333536883783645,0.010219111512488,0.00221186920658731
0.0442792777612007,0.0258073625985134,0.0129686845021783,0.00197477675391848
0.0293183027448734,0.0369211476097424,0.0127828234854036,0.00193228198379413
0.0466168423165585,0.0230078228221627,0.0102206353580701,0.00185512652834368
0.0494785022943972,0.0302557664537244,0.01509824391749,0.00266462389340969
0.033248483017247,0.0275574907947872,0.00979466098485757,0.00209439863023562
0.0415521895642369,0.0309171247377605,0.0100481219545908,0.00182770210768486
0.042840517600463,0.0236418216992382,0.0105205788852597,0.00225923281904641
0.0378362137724452,0.0250223348300885,0.0130699555946733,0.00196742299049006
0.03732116751864,0.0234219710899293,0.0111239188289054,0.00167963111420435
0.0395677546702643,0.0242060443998637,0.00853968681880567,0.00194162222133802
0.0409606084701491,0.0271755652680023,0.0100722233773562,0.00216698791899868
0.0558700437882002,0.0308938959258775,0.0115356153372851,0.00197401427774483
0.0428589598998012,0.0232359903627588,0.0101024912098632,0.00217581763563081
0.00999489983209927,0.0228665499326003,0.0087237349113994,0.00232277612583805
0.0125625248614687,0.035077843672164,0.00980485063079551,0.00314085561359951
0.0119463842810745,0.0266622314614874,0.00981559689465537,0.00201532806860903
0.0129245733381069,0.021770907718661,0.00558058763576489,0.00151687261600938
0.00851715332800711,0.0284240884370582,0.00727272870693518,0.00235106307142781
0.0103651610583685,0.0273354345681984,0.00787783546953842,0.00205467502756443
0.0134887192365398,0.0173306952584818,0.0109136750983855,0.00208362255144949
0.00914479501036654,0.0256744674876637,0.00876482504033453,0.00190103775082662
0.0104681842758272,0.0270285964153891,0.00800627929045191,0.00189798068135903
0.0103445808334715,0.0256842221125452,0.0095567895585977,0.00234312087009419
0.0098990601315879,0.0286823874939984,0.00785714666312916,0.00239061769527776
0.0101345744103337,0.0226183754033233,0.00894688249223207,0.00202748269495404
0.0102648284005953,0.0289605723369822,0.00789694818320235,0.00265488640215308
0.0113099912478639,0.0259350647963712,0.0115427687080919,0.00250331735220904
0.0113740012497917,0.0344367643263786,0.011254436651043,0.00325906167025341
0.0118095192339723,0.0303868495981285,0.0096276423547458,0.00244184780430037
0.0110451944164806,0.0252095982095369,0.0111176843056279,0.00344333523312869
0.0137095315217245,0.0284380537518036,0.00955128646098042,0.00316692238415056
0.0129636011465046,0.0214076479816069,0.0123617352696226,0.00290429961632786
0.0155132979032032,0.0341535553236754,0.0145317123019041,0.0076677385711367
0.0144543856613745,0.0389699338094813,0.0148241975194059,0.00706858192768351
0.0138046785541209,0.0307183458380001,0.0145280099527149,0.00548898918492279
0.0180197391451812,0.032843970857107,0.0168623723745697,0.00606104656973625
0.0147601875137326,0.0289581567376113,0.0127798554877931,0.00557633852626132
0.0156014676740339,0.030256546274593,0.0135937831637329,0.00332668777274276
0.0136217316589284,0.0404461084122939,0.0120626914366561,0.00485249549105992
0.0145133001484821,0.0322740623017768,0.0130895524196753,0.00506552301144845
0.012705703255001,0.030807106725628,0.0147166752404844,0.00547221332300134
0.014740581809011,0.034177989017558,0.0121287593280989,0.00395889175363189
0.0204409526388558,0.0420347498010712,0.0138074875733396,0.00442050151397103
0.0188903636765311,0.0455189229229962,0.0193645891289968,0.00551329937634807
0.0209570407907651,0.0479752100270908,0.0172886529846544,0.00281780218740514
0.0258925482846283,0.0388288748778097,0.0148886748747341,0.00275552903363898
0.0214059604221964,0.0673421149781504,0.0118977442040367,0.00268904632412067
0.0277369814467669,0.0569609172733387,0.0184091747010961,0.00307639554684482
0.0307010237023552,0.0502015048147915,0.0179487026263588,0.00339273731733903
0.0220119522998348,0.0481855598198284,0.0185681883049959,0.00286120042704753
0.0249071561906114,0.0486408581546398,0.0141751839240039,0.00322404291136817
0.0237583149599104,0.0415606437369844,0.0162859358997425,0.00277116845108654
0.0182265330921662,0.0430326014053397,0.0153939047303598,0.00252513708180912
0.0275091236575555,0.0499449751182425,0.0176689727500325,0.00239207707174954
0.0253463199646978,0.0447882629995637,0.0140413865020764,0.00355883189465728
0.0177177106270931,0.0381392328231274,0.0148992900922138,0.00229530138085098
0.0209231225908325,0.0454028588790324,0.0130464694500172,0.00261794601103524
0.0145861053439533,0.0348092042707759,0.0103050609761513,0.00215870174875964
0.0210375588290804,0.0315187102839948,0.0160048680619096,0.00339267624797229
0.0216661420961129,0.0389687336486471,0.0159229908993627,0.00518680981075837
0.0209611420454067,0.0323751120038459,0.0162230247710257,0.00290429868499572
0.0166945677802384,0.0339947275108395,0.0125225348172178,0.003697871288292
0.0224530844819806,0.0508119021491892,0.0108294769189817,0.00367328085317499
0.0215602999491745,0.0441229274432107,0.0107560636509734,0.00237907088369507
0.0158659197546959,0.0496265880156183,0.0160811609948224,0.00430673589870786
0.01726975542964,0.0499433647442354,0.013838247277835,0.0024455810431535
0.0205271711566126,0.0527433656874418,0.0160229600149373,0.00258236652705758
0.0171372151574021,0.0361639309316082,0.0109467899530077,0.00275400574284471
0.0160729109482764,0.039964384592799,0.0116647953948263,0.00218643942837927
0.0180163612047591,0.0393291006456801,0.0124025991420854,0.00223136862617337
0.0189317132031961,0.0410622278669042,0.0127647195753929,0.00206458201915643
0.0205649339651965,0.0335227564402358,0.0117277571535763,0.00224046299999272
0.0254938351436883,0.0282221696318815,0.0177666094511433,0.00297105222066477
0.0344876770820042,0.0284501609427163,0.0200130871945625,0.00448340411266359
0.0264630531186904,0.02264297643935,0.018387933322033,0.00468367113837712
0.0298412730001428,0.0222449351192344,0.016446550698849,0.00488620549829046
0.0272650257350261,0.0273326579632019,0.0223684124229308,0.00512664440253184
0.0283646078373835,0.0256261381735583,0.0201580676180728,0.00517106692510558
0.0310263916310808,0.0252952328409615,0.0195949197294264,0.00455059015926312
0.0335621916610477,0.0252086331668947,0.0203769240226913,0.00530028294125656
0.0310308840201101,0.026701939871342,0.0184400118403219,0.00527657447756592
0.0329447312391097,0.0272232622231899,0.0245746374929699,0.00458739373547341
0.0299626341097849,0.0348498093380401,0.027429398978168,0.00505115356747511
0.0234296353692319,0.0259769658203263,0.0139605054688151,0.00380690578235849
0.0227317457053158,0.0292421408076257,0.0105303422537424,0.00702928168577475
0.0241969551040282,0.0193299204773984,0.0120172770474554,0.00346466850057306
0.0225458081878008,0.0174235481253629,0.00976520783200052,0.00385898592034986
0.0246419099362043,0.0219230756813375,0.0102297908889994,0.00281102522095893
0.0215521074935837,0.0217498334259309,0.0109831983579894,0.00462248722237999
0.0242098582802639,0.0217290717256816,0.00964367363489268,0.00334528522505551
0.0206082813398689,0.0200201937229152,0.0081138613263806,0.00265601277434431
0.0228927215277162,0.0209591804429961,0.0148767650460208,0.00368409755714193
0.0222622519987182,0.0215814282370537,0.0153887656588294,0.00286986269140493
0.0185253282178496,0.0217329986172346,0.0147520445509547,0.00294199095176217
0.0227146327846987,0.0154718375361032,0.0120285019779086,0.00302241308863158
0.0235092731685277,0.0171373033121282,0.0143749080360842,0.00396086134197634
0.0235808211099845,0.0201315764496715,0.0106087475402745,0.00310990301181159
0.0253972056037755,0.0200251525475711,0.0110694759551975,0.00348622235403814
0.0247681706517144,0.0223866870357143,0.0139158111083504,0.0038008503031054
0.0237475704144484,0.0267727672387796,0.0119488714635912,0.00361578535080997
0.0256317460447031,0.0278966015195998,0.0119919370927674,0.00464180080506591
0.0241648154739207,0.0287374269637477,0.0132422216528078,0.00485927969422414
0.0400696826259986,0.0285002383823583,0.0151093653733568,0.00448841189136264
0.0235175444819317,0.025305306548412,0.0126689299093792,0.00426265453492636
0.0207714795688992,0.0207880718003227,0.0159000982302776,0.00363613089341629
0.0303695353018677,0.0296190839129501,0.0156256568505104,0.00511158570985231
0.0269532520972479,0.021135313186514,0.0095899370499968,0.00368990062467075
0.0276659958593692,0.0301143427609487,0.0114671659700766,0.00286947431989165
0.0311100758058407,0.026958000259009,0.0141440298181311,0.00303370243437201
0.0253128461127364,0.0219689569485996,0.00959580305248917,0.00295278125050171
0.031220910221967,0.023560635784739,0.0117752721225634,0.00305860631388259
0.029023717909726,0.0181477002162384,0.0124410646303786,0.00325297479245227
0.0284220756864334,0.0231155469449873,0.0115422892793103,0.00292731460950886
0.0243338570775375,0.0213224685924898,0.012597684298346,0.00303859560436904
0.0231989165006507,0.0179872709387507,0.00772897379436889,0.0026933600132932
0.0249624745082438,0.0262273137282833,0.0127611125762405,0.00299159870303391
0.0338739912123193,0.0223394988293511,0.0101712065501712,0.00401664004468053
0.0282484866135732,0.0198358806117949,0.011450854211292,0.0027886353009238
0.0208424020731909,0.0232891386870092,0.0133882509766935,0.00424041256618541
0.0252594434024049,0.0271366131547991,0.0103570464661408,0.0026348845983614
0.0304871949850897,0.0190123571345671,0.00924442467848105,0.0029756584185119
0.025793790134011,0.0230726916093865,0.0105849730975225,0.00355716034359136
0.0261652619682516,0.0263937632053845,0.00994684315442056,0.00361038322781164
0.0271386720595112,0.0285678082922862,0.00875542378967471,0.0030903241288153
0.0245407631431261,0.0239322347566806,0.0100310798846423,0.00316301176669235
0.0293361862613457,0.024906057893256,0.0102098692859491,0.0028573084621486
0.0205198339896227,0.0217061934361752,0.00935158286005467,0.00304084110797834
0.0307121296063296,0.0211945487114265,0.0108428432113691,0.00312035151321158
0.0250271215139141,0.0288920045851786,0.0108493315160898,0.00283469164435788
0.0260563133876177,0.0293436262535146,0.0119884453069083,0.00291122877415434
0.0241848235804312,0.0212711766215667,0.00949898007402589,0.00307582424413385
0.0257509141723907,0.0210224941321597,0.00888219704055797,0.0030274705551322
0.025308258844231,0.0226069609354704,0.00892027413378395,0.0028837702936629
0.00918703638135614,0.00820652919729449,0.00707267862772204,0.00632092158545574
0.00837596724465812,0.00813265702849304,0.00625541378388253,0.00501788936645799
0.00888389972118336,0.00859313932056705,0.00814339609845687,0.00489788240268377
0.00903190779309763,0.0087333054484581,0.00649625514361159,0.00537908858816156
0.00798958433317669,0.0100959972734197,0.00614910745883784,0.0055504821896512
0.0127128946827569,0.0079636548500474,0.006029693516661,0.00555709302600601
0.00846441625087606,0.00868388849174435,0.00711414223659179,0.00629628904145178
0.00773847881095405,0.00655176911026883,0.00672467033617559,0.00509837821992287
0.00842119270387313,0.00677942298452293,0.00802890621471407,0.00493854809829826
0.00949974210067569,0.00917537550944003,0.00863438150783106,0.00557082311575683
0.00991255610842499,0.00734946549300701,0.00619732941616461,0.00493631316373623
0.00933504568001137,0.00990451549553941,0.0132090354609777,0.00541962498111968
0.0109544347952818,0.0070712848001681,0.00880024204946598,0.00727497083557641
0.00838948725569981,0.00706676254891547,0.00758750453577052,0.00610653204779759
0.00723880151543475,0.0082783049830615,0.0103564274618757,0.00702798275963427
0.0097973947145253,0.00819364077834291,0.0125821081855719,0.00538509867817249
0.00982786098550419,0.0106959586872217,0.0138776881165384,0.00688344329989711
0.00669755192987166,0.0124469162870442,0.0110379893840877,0.00459187840952975
0.00881168435920239,0.0114723127234904,0.0160771849376774,0.0058255125529979
0.00756436386024126,0.00924479680832285,0.0140566560209792,0.00740427583419552
0.00788978610765362,0.00928492052612833,0.0180215825948531,0.00566684415254235
0.00685872033991104,0.0109377007215348,0.0129891805214892,0.00687997699247966
0.00704862923699969,0.0107427051261922,0.0179102301513056,0.00644216127992426
0.00867044850642639,0.011125325517092,0.0207311157822711,0.00693879053562347
0.00857571848106433,0.00830398339976466,0.0143741465074947,0.00598261204380447
0.0129120806774929,0.0116298712126097,0.0102659471229336,0.00526006636698489
0.0126990187224117,0.0156495481531537,0.0140203554724683,0.00442927981992128
0.0118947988671832,0.0184800652580102,0.0133798658414639,0.00532548560172679
0.0552032642917351,0.0122824961235478,0.0141478931784608,0.00520351737064864
0.0957922712419391,0.0151090822997034,0.0141477153542081,0.00470924601317432
0.043848795094371,0.0167124995506812,0.0145673270247491,0.00492773054691329
0.0216740442986511,0.0140868844743166,0.010937665069776,0.00447118985108961
0.0174868031415451,0.0211403509778803,0.0161900827808769,0.00459814064953327
0.0126607637230072,0.0198195230580591,0.0140017649092398,0.00443724487045108
0.0187267445892887,0.0178347038242924,0.0118679871751309,0.00594519880203535
0.0148142461753129,0.0239877627743329,0.0139079164036944,0.00619741007921876
0.0172735406065172,0.0246523932073123,0.0118875275783192,0.00614484987836992
0.0158361979326164,0.0249317056585101,0.0139102996337895,0.00447165257794558
0.0150930870335372,0.0194927725360988,0.0157466838060374,0.00450275509141145
0.012710422387524,0.0206693514454559,0.0189930765280767,0.00544718163220618
0.0168201912581551,0.0178012800810961,0.012167070038164,0.00484111579625868
0.0119103733409139,0.0178956124609411,0.0105758319645489,0.00429237029508808
0.0114433707551209,0.0163370483353295,0.0128654390096206,0.00619685860954796
0.0127230792135858,0.0143550490706584,0.012070673091247,0.00472270825546563
0.0151416864195091,0.0170775985887974,0.0101225574027372,0.00429939720599736
0.0132372907551426,0.0199061687899938,0.0151466841090385,0.00454397916273202
0.018220133086694,0.0202927327929259,0.014531809780629,0.0047517881692858
0.0150971183761615,0.0188770381196025,0.0145859541819874,0.00771999697555512
0.0187785231906555,0.0256163863807674,0.0200308331763102,0.00683032537777351
0.0165283659699868,0.0242729733894298,0.0146826924158788,0.00600516620996791
0.0164535972872496,0.0215432784298299,0.010334193405911,0.00472357315683642
0.0161358192512237,0.0205572347165206,0.0125259167084315,0.00564818518070642
0.0138870447395348,0.0233124570915365,0.0135750018351872,0.00513765101102172
0.014036197262438,0.0259071700773075,0.0138669265542656,0.00475775417136591
0.0166832944998008,0.0195942353285476,0.0138441621524507,0.00458640140157797
0.0172178025579859,0.0242504702628913,0.0138247392982933,0.00470267836224964
0.0200946527884641,0.0291879637393634,0.0162778614206173,0.00525208041575771
0.0141459843473441,0.0215979977749615,0.0134493144788211,0.00590313818721845
0.0195594315933916,0.0198862483087314,0.0145278407264048,0.00474131490852613
0.0157024404849946,0.0191943632135119,0.0155048491688619,0.00484453766304649
0.0568438869239165,0.0641858163210626,0.021533006109999,0.00780130974997629
0.0454306771050238,0.0450107347415422,0.0244321479212004,0.00643066520904411
0.0421220371191498,0.0489588791243673,0.0187632170073734,0.00790037969941171
0.0532050312501826,0.0457663047263598,0.0228867864210112,0.0103291168461302
0.0514460527688647,0.0506551064820119,0.0244254098358409,0.0104499248270506
0.0530909227132706,0.0530768078581681,0.0178798727890644,0.00834419711161453
0.049212920420417,0.0667101503628511,0.0261106957717194,0.00939164373865237
0.0502212324705253,0.0478259826047838,0.0181468802317164,0.00868074864739051
0.0555776175642086,0.0489186283454002,0.0199289621643083,0.00778891936758738
0.0420090972710326,0.0372714710310833,0.0252675508040491,0.00977851747676812
0.044577906698895,0.0570837656181602,0.0306453031607203,0.0098110765584857
0.0554343585779956,0.0531443953321861,0.0187000191445634,0.0105113573627
0.04590118494092,0.053554449430867,0.0293176822672296,0.01138761153002
0.0428750967681458,0.054995602717805,0.0219974488454113,0.0108146711927506
0.0516082366122853,0.0632910828781177,0.0289301551766291,0.0103352881644075
0.045234461225624,0.0699158405979229,0.0422389626106126,0.0118362936708089
0.0462896414220583,0.0633275624041129,0.0446539986920379,0.0148975832043828
0.0599248607448042,0.0588028387165279,0.0422762465742289,0.0151278738775646
0.0497957069720341,0.0707406801756328,0.077402584856154,0.0141381804605931
0.0585025385782478,0.0507074426621441,0.038425820067318,0.0124647529711072
0.0638019204353186,0.0769427207533917,0.0490510875645977,0.0134663140527283
0.0640808724112888,0.0540718008615713,0.0643799594016442,0.0128683587858849
0.073418691141874,0.0654098873604946,0.0617339378392934,0.012724742303433
0.0597566517929861,0.0443877223701257,0.0373892311097888,0.0105247500626456
0.069479041863732,0.0606753734011711,0.0395418845171926,0.0139014208898374
0.0886958330694295,0.070600456073196,0.0275299867958257,0.0102042504333615
0.502673689518306,0.0680466041819691,0.0543249688074069,0.0143810007097603
0.345483840834796,0.0657294087180394,0.0299648242234503,0.0116430787272423
0.121271911748308,0.0778709194526557,0.0422142370651107,0.0161370477235092
0.0601007987772128,0.0585043908505307,0.0219060027877276,0.0113474172361182
0.0775740000242378,0.0627591668854844,0.0282439267213469,0.0126148522574233
0.0522580266227235,0.0497246054559363,0.0691468175346402,0.0118339332019048
0.0604963623034027,0.0607641057522717,0.0423935648852904,0.0150915567880237
0.0663931953209154,0.0653623814571889,0.0319022569956108,0.0107288336572871
0.066106345976928,0.0645641244775353,0.0439077438589587,0.0122062535000523
0.0603360205140175,0.0563744684144101,0.037294279390856,0.0119081783597869
0.061221845739412,0.0472229095105536,0.0603031402156705,0.00786644955525349
0.0628170121512098,0.064038207667223,0.0556167403724055,0.00939653543303665
0.0546247775064192,0.0708518945367707,0.0426428412622819,0.0148531057693334
0.068257984175668,0.0418300636110275,0.0332537821126617,0.0110828010500851
0.0571662902788701,0.0625441094785853,0.0363908901845205,0.0115445654862188
0.0523980403103666,0.0697768760703821,0.0269898734467416,0.00958610339807799
0.0571554246098657,0.0580511364280437,0.0273457854244297,0.0113457082600646
0.0549635040659664,0.0495843059973281,0.0246883384848282,0.0177694077678308
0.0431295423592318,0.0502890330143376,0.0386619897248059,0.0112966442627391
0.0560499853305607,0.0678343068254211,0.032760179859733,0.0127480605029032
0.0430190570549582,0.0601800125961998,0.0290274973099778,0.01233469806984
0.0516753970727985,0.0674400433401885,0.028899144022484,0.0105590358376603
0.061911861815861,0.0716093518972147,0.0210149500029835,0.0125566470065583
0.0474860560077173,0.0452843112631543,0.0309519734448449,0.0119844367518024
0.0662040524897276,0.0555570414889022,0.0350987756350779,0.0125872833146175
0.0587135178350597,0.0597579956631502,0.032080304311912,0.011357501065159
0.062115035672028,0.0600652029397553,0.036383097436645,0.0111397745529306
0.0510841691991368,0.0650795685748191,0.0224237577215351,0.0114032069246941
0.0692321058591922,0.0655518013287675,0.0324267906801964,0.010212485827038
0.0424931729392486,0.0642280317061213,0.0306092947982876,0.00994004096605201
0.0504755881593949,0.0657961147397099,0.026249543201497,0.0134025622370691
0.0586172679314646,0.0662951797721913,0.0229017778734636,0.0141354964907225
0.0677062984589212,0.084154472495316,0.0268428827911299,0.00864061763315336
0.0566266676611662,0.0623715172767996,0.0224495306594545,0.0113355558029949
0.0179824686616592,0.0211780308619199,0.0132174862491547,0.00465425667222614
0.0156672164815169,0.0204086812362235,0.00988464209935847,0.00405758975603576
0.0189272222675924,0.0196462849409797,0.0119248836551606,0.0038642459953027
0.0169364926277263,0.0187775022937009,0.0113318903378661,0.00451135698262115
0.0176801433348079,0.0206013344572241,0.0104828743269984,0.00458470351854217
0.0159366172187388,0.0167816553709947,0.0117616669500262,0.00386798315723366
0.0159335762093515,0.0236556109868541,0.0103066909353145,0.00401695231300229
0.0184612611880893,0.0240518811871362,0.00953418565019496,0.00468705833800289
0.0149177569473091,0.0186531678520933,0.00896225916366358,0.00461861734508333
0.0132079015661672,0.0185737757776495,0.00817338626082701,0.00364306286666976
0.0145986513359785,0.0180438000737278,0.00832640774136377,0.00445298500084903
0.0161840000964944,0.0178237240420027,0.00928298779769827,0.00496426267048129
0.0183138775091939,0.0171788779633917,0.00885740023816236,0.00339015428246668
0.0166577530137406,0.0173893416440271,0.00861030773259386,0.00380429701538062
0.0138350868680635,0.0211244734762433,0.00860917640522341,0.00362100151487374
0.0151115101598762,0.0189116442260646,0.00843909552284805,0.00415460624775603
0.0182418313476568,0.0222484584484194,0.0132983715597331,0.00622701888947341
0.0171647366164614,0.021364707934012,0.0113005987989187,0.00511957347219919
0.016530456992887,0.0188416415998434,0.00704559196773119,0.0055578622049502
0.0177588564016827,0.0188700482718215,0.0101314522440937,0.00541636915827729
0.029515957010349,0.0220383609015455,0.0100804648097708,0.00540893412416893
0.0401449734452504,0.0235578568401834,0.0102313546281838,0.00664315843235804
0.0341914495115225,0.0223306829902294,0.0111353414906086,0.00622640002925123
0.0576846215015426,0.0208080019210776,0.0112745149344999,0.00375499898548221
0.0413982770799484,0.0243234025747384,0.0182702006122117,0.00351502211382602
0.0258658256461672,0.0240897978202363,0.0130461150626483,0.0054672573550072
0.0216840094985722,0.023109303502185,0.0135186445568424,0.00505867723394684
0.0251501992181497,0.0246227742982743,0.0160868432966552,0.00553330273982674
0.0248174884060082,0.0258140700267071,0.0132812434223537,0.00342203551183205
0.0251186349418449,0.0229590584713368,0.0144781335686479,0.00351780982747522
0.0253949196890155,0.0280599866725541,0.0258865913303317,0.00356495643211219
0.0195573286825583,0.0244450988621695,0.0320734166864672,0.00462957177656082
0.0207298294248836,0.0250631798678368,0.0331606948759747,0.00510509058558559
0.0196397979533584,0.0250887378282419,0.0135539191548538,0.00425526952822893
0.0198338335037428,0.0237339550698073,0.0283671884767786,0.00531889592895739
0.0260877655732956,0.0255616256134022,0.0965640322535027,0.00540489775625578
0.0276229270607886,0.0251781233785045,0.0244193546851416,0.00803431587955206
0.0243630083466942,0.0344510257498841,0.0857787852731183,0.00921873046944545
0.0315820299941984,0.0349750123750112,0.0563645064562807,0.0131482438656534
0.029548414168431,0.0315150575800934,0.0159596584108189,0.00970616638132529
0.0252814422059338,0.0412361735921457,0.019833563585954,0.0163022844773934
0.031712710260561,0.0324997551846393,0.0184553773649666,0.0124983923745076
0.0330222402331525,0.0338927663898831,0.0193356971324287,0.0145846213406903
0.0260070685384022,0.0356259872471091,0.0168661979700566,0.0135729438065952
0.0296019659014122,0.0363454614114981,0.0396908425730289,0.014076016479807
0.0274222026331791,0.0395001410241955,0.0313491596948278,0.0150043952654016
0.0220787373842645,0.0301501763527478,0.0226021345299882,0.0131107414725248
0.0224357297581507,0.0299136465576585,0.0190531639932884,0.0158266519436274
0.0252000900047954,0.0336455066553779,0.0150618638081291,0.0117015837899722
0.0283600137711611,0.0352169098411944,0.0169844852892058,0.0204861971342595
0.0246616979979842,0.0324584026015948,0.0161373065159703,0.0137931227098316
0.0254787333629492,0.0287547175574183,0.0151181088886178,0.0146597283856742
0.0234171440344097,0.0374843932227674,0.0128261221863224,0.013191143737769
0.0286569166650767,0.0356842266834818,0.0156330190740921,0.0118839249545945
0.0195774868055252,0.0297381991001758,0.0123424855990181,0.0110474690637628
0.0272154549395437,0.0331576545178027,0.016260520115858,0.0119982273086669
0.0249424580935615,0.0313722987006667,0.0135846318529675,0.0115503956118889
0.0338558567383828,0.031124798310851,0.0144294389236089,0.0124120527056394
0.028515366992956,0.0310418623766291,0.0177544372466661,0.0150992139945984
0.0476229376761332,0.0436398693502772,0.0242654083461519,0.0159115509943118
0.0564074615823012,0.0209825407767775,0.00872557567153654,0.00429964254784806
0.0466462149441664,0.0243656399488183,0.00856943332965621,0.00329403897827727
0.05331022258144,0.0191830476118509,0.00908958879191197,0.00415782016841978
0.0537347353824393,0.0211519051345448,0.00839073466373377,0.00399569931840644
0.0484723875749881,0.0255212618490703,0.00979692114399156,0.00449392274186792
0.0696348480201373,0.0200579492976027,0.00916367736171788,0.00407232421145933
0.0492128899042472,0.0246243235879026,0.00946939701380695,0.00414876180427571
0.047417775844161,0.0225942640011905,0.00952451082980267,0.00446758027595648
0.0554535849941708,0.0239028210531751,0.00989654793317741,0.00394508698530574
0.0529984583502154,0.0219812014457983,0.0143655864476998,0.00584515863491047
0.0626180405259561,0.031314272860832,0.0156747326857171,0.00649038869716331
0.050948572672193,0.0257883499482529,0.00856468676354335,0.00398015576457525
0.0592290185235255,0.0261206517849389,0.0121411319301074,0.00574103278832039
0.0765197620026345,0.0317573121641382,0.0128734621189808,0.00510244720409472
0.0559571649842493,0.0306715329549401,0.0174102329979697,0.0083101900441175
0.0661843465414191,0.0249278314370657,0.0175169259927913,0.00865867152719544
0.0600967729407621,0.0329522603722013,0.013047450910124,0.00900150999899414
0.0540871411349606,0.0338645122889576,0.0147574168883321,0.00975132378441049
0.0395113923029838,0.0299508716882302,0.00756331215858273,0.00564053125132552
0.0461540665836229,0.0249039140735049,0.016764616643079,0.00695064099251037
0.0377226282127204,0.0255526377283612,0.00965290704017509,0.0069268633489161
0.0267408830645017,0.026084752694198,0.0128075569800313,0.00505119668879291
0.033602577077015,0.0249356714529489,0.0122564999497693,0.0066214309731761
0.0344235957417737,0.0300713763054897,0.0111231507452439,0.00506576295575983
0.0292213796358824,0.0294070146373857,0.00983249705787629,0.00511831051497869
0.0294679133410513,0.0350350064276484,0.0126452758688544,0.00385740347387516
0.024087910573981,0.0294144071284163,0.0107165749210733,0.00401402567011514
0.0257419860837979,0.0409758302319873,0.0174947502263817,0.00486855096837254
0.0259438246123402,0.0509120673850264,0.0155573843745441,0.00616280114264841
0.0300121091086783,0.0517650084338734,0.017393656503601,0.00423259328297229
0.0335683902582843,0.0448052237684325,0.0187719943408949,0.00398594043681176
0.0351951360895699,0.0323483970884592,0.0194336778146411,0.00508263427339225
0.0272424344267879,0.0340148430103057,0.0201509519810314,0.0047677463848257
0.0212524349095327,0.0288211530879172,0.0259713925830486,0.0056609645955892
0.0207700575010961,0.0269858374361374,0.0187676505669076,0.00578706389514927
0.0234093934063824,0.0336682599332341,0.0168217596146055,0.00561011904112044
0.0223388792109454,0.0322746854419683,0.0160095646887619,0.0045977151665082
0.0245380149613728,0.0416540110702068,0.0176282499785698,0.00360145450287667
0.0257098974647266,0.0335261757608087,0.0146487903632513,0.00431826519622307
0.0227970051458269,0.0370711543244669,0.0143149529227295,0.0060605680745832
0.0210351333796626,0.0440564002479316,0.0173344208500458,0.0052380679799282
0.0284538862397692,0.0328112931353197,0.0210089717586565,0.0044465466971847
0.030517509807923,0.0315194277629781,0.0126940462733015,0.00423431234313778
0.0285367510383619,0.0367420210979882,0.0163111524274018,0.00421428456445627
0.0257052707947489,0.0283545422602901,0.0187100433188893,0.00531797525368893
0.0275647602400165,0.0350554375919786,0.0149228329348069,0.00395495097891539
0.0231950574559154,0.0315738179399211,0.0180822195106935,0.00336975889820885
0.026307272402373,0.0303124844850444,0.011015453083925,0.00412241424669306
0.0288754739124773,0.0323992077757167,0.0121743273433374,0.00473491511942247
0.0295888087599236,0.0426879572551623,0.0102396081507202,0.00409990954336078
0.0238863147244921,0.0471221911709704,0.0144768215544151,0.00523512272649112
0.0327280056923305,0.0370905246826427,0.012321017505382,0.00449269837939855
0.0316842243931332,0.0415669135505075,0.0103013719816146,0.00295630542754395
0.0253185267671651,0.0425729982881835,0.0109071470395894,0.0036360104264423
0.0215917117664625,0.0483543872561455,0.0136149948611453,0.00598496747685853
0.0224302900801546,0.0434785542402095,0.0114677391208491,0.00471681002969448
0.0227818232052303,0.0341283596501067,0.0128593079119016,0.00420598294801644
0.0292146479390985,0.0320706776125305,0.0142023402446335,0.00340301374809148
0.0202425965984368,0.0307034036872863,0.0179032678275409,0.0031149556875616
0.0176228882172485,0.0279735108245377,0.011675517771611,0.00335961209114857
0.0200979250036488,0.0401803338871069,0.0241753199300593,0.00393257831247435
0.0163352218769069,0.0352792014750629,0.019487174001999,0.00387503678000915
0.027874173993388,0.0535742281732513,0.0231951701725752,0.00395290788393363
0.0376070840795946,0.0461670117270981,0.0348092038571556,0.00428447751590841
0.0188537146032071,0.0302602645291344,0.0271842233820961,0.00337592541705007
0.0238876715405009,0.039897670817105,0.0258821754629903,0.00469495581160437
0.0257330974187389,0.0436033494620119,0.0298907083251428,0.00380790976855043
0.0213976503011343,0.0429302406127781,0.026462255461113,0.00603005996045498
0.0178630076727824,0.0390782289516904,0.026503212673935,0.00459116980412434
0.0256815417007106,0.039464899659379,0.0376571126440864,0.0060030287131401
0.0303340846409749,0.0472115139327452,0.0264070283532675,0.0110096902479699
0.0211740349686559,0.030346970849019,0.0234936751226021,0.00552906026929875
0.0201436068468086,0.0334907751387603,0.019564556440975,0.00893848518537326
0.0199345811708257,0.0316372836782366,0.0178714616932936,0.00785201178041966
0.0337661162167705,0.0342484447295829,0.0240264473235522,0.00784141863160023
0.0239070460982286,0.0393562337962167,0.0256295646649037,0.00749069810266101
0.0264132570952921,0.0446085005091691,0.0286767774308096,0.0111123254103359
0.0280618713186609,0.0408832940669075,0.021906945830794,0.00669923658947844
0.0279884773287068,0.0351123055027891,0.025777791678017,0.00918783308722869
0.025918176968083,0.0348102100358329,0.0236682611486333,0.00912570930352166
0.0210194869748036,0.0339973887768457,0.0202698379800966,0.00918866540264065
0.0267377059994593,0.0289429115864306,0.0262203256030882,0.0123572279285613
0.0215060936449774,0.0279311384506369,0.0174209371071417,0.0103648814430582
0.0569108375932109,0.0339190317244422,0.0243820445943293,0.0115444832948782
0.0203917249889875,0.0332480050393794,0.0268809426584161,0.00913111234427332
0.0313193464809792,0.0331896357429972,0.0227169486000148,0.00907740243078738
0.0431951293356071,0.0299911707889643,0.0221514158042449,0.014186148529342
0.0322467759912755,0.03151350895608,0.0352515133190555,0.0136295559859043
0.0264874437802809,0.0311881400647841,0.0291715653242562,0.0106729403642053
0.0275601110686194,0.0278178506880217,0.024407506035757,0.012309959821965
0.0296235863550791,0.0341702743939545,0.0234213289835838,0.0122686048361493
0.0314125510503272,0.0332620455390585,0.0275825297678833,0.00879238052370519
0.0321942170951142,0.035241108036792,0.0275622875119856,0.0111003907827135
0.0398723724237065,0.0352778203760179,0.0371489258906309,0.0112370202445701
0.0339163349423301,0.037299788000513,0.0461714213162591,0.0117206915387419
0.0451436766250028,0.0406819925769225,0.0300222975528775,0.0176823134994938
0.0342971215706899,0.06477362464604,0.0308154366241019,0.0127271058318155
0.0299227130306331,0.041094873672431,0.0404497341434653,0.0119399075260814
0.0402418663582182,0.0547160467268834,0.0298789975684886,0.0120533041401397
0.0423966087420617,0.0535992526048023,0.035342812680834,0.0107859733758121
0.0336882027676179,0.0518215783815054,0.041520512427581,0.0127868761856681
0.0413938569226893,0.0429458800999897,0.0322680202615972,0.0130956497300346
0.0444053901837325,0.0335340270208704,0.0272894133588178,0.0152886122459481
0.044528742160173,0.0553030154751905,0.0324101095753221,0.00939645226287921
0.0415655385544122,0.0546928413502072,0.0327444025616038,0.00977654379354296
0.030742633907515,0.0520633059124825,0.027818226940668,0.00839911306039843
0.0292213539225889,0.0424805409867966,0.0390152612080421,0.0132365795413206
0.0415023954438514,0.0508765265140641,0.0299927130162743,0.00976198848440758
0.0483538593134438,0.0386412928711994,0.0323374208097139,0.0123341686511304
0.0382171828578882,0.0387863379161641,0.0298014886658748,0.0116548616094249
0.0374151705370665,0.0417333026174655,0.0339865199149571,0.0109302872171318
0.0384051436076208,0.0486227823278211,0.0321686511464838,0.00854939017704192
0.0336293026678508,0.0385838357920087,0.0297858856652214,0.0135119026160284
0.0403657560049828,0.039783657509827,0.0334117136802377,0.0078915198292613
0.0334711912174398,0.038858786604758,0.0374341267052741,0.00768818849540652
0.0337030759815991,0.0357898312212627,0.0311671720181962,0.0113144687562326
0.0315100462489948,0.0365726955673776,0.0376198559432018,0.00779927302122794
0.0409295464127273,0.055766389339187,0.0357560249287065,0.00933893377642353
0.0292817419421041,0.032309043607064,0.0271149592138966,0.00662702693140791
0.0370188062294261,0.0386256175663439,0.0314087354458736,0.00791419414459617
0.0156056511787095,0.0247326335708632,0.0108939724600583,0.0102334903076213
0.0159526066796356,0.0239486933097771,0.0116176854599656,0.00879261721139227
0.0169605328005574,0.0213854470921501,0.0115331066910909,0.0131892909852961
0.017039319060592,0.0202407854719667,0.0121572188398765,0.0100198197362973
0.0126824429952709,0.0199213300908152,0.0105475963411225,0.0108216011868852
0.012774227400874,0.0207210691646729,0.0104198896989495,0.00857519173597646
0.0116761716642532,0.024169969180663,0.0117008313856308,0.00949626261480489
0.0166165273593605,0.0217195327963394,0.0110012731967651,0.0128951385179974
0.015249615085602,0.0252039314735807,0.0118358945631237,0.0108759985414026
0.0109239970018887,0.0211295375728053,0.00956521973694131,0.012518526786999
0.0117893402710292,0.0292058597437194,0.0109202732671389,0.0161290021097382
0.0119058193649238,0.0273655460048052,0.0104712593400291,0.0114118588680138
0.0154103883820534,0.0289947367256897,0.0136005627787059,0.0135690485062166
0.0134931865844767,0.0193869706421642,0.019736809843437,0.0140694125230524
0.0114783442073547,0.0261535931260707,0.0134872730634023,0.0164493362162893
0.00946874787757088,0.0252185813212114,0.0136611549192462,0.0160629368197854
0.013222762176396,0.0212135768833044,0.0128321760984253,0.0162563674791565
0.0110923780967004,0.0244681295062909,0.0128432188539653,0.0156580379682733
0.0167953196308228,0.0206208050352464,0.0232139360153294,0.0128100748740002
0.084417492859969,0.0233462570687523,0.0155646204344217,0.0160747790040823
0.174672803716939,0.0317251172772784,0.0495797901841592,0.014952368227094
0.0955247947321849,0.037645648638327,0.0617118754183612,0.0107651760256026
0.0748009065884397,0.0298157657839963,0.019238055076215,0.0178360133830688
0.0986980272871695,0.0348507519681314,0.030700950315725,0.0134347176334192
0.0649585029724353,0.029187332843126,0.0167058397501776,0.0124081138200112
0.101817833714683,0.0326549684236319,0.0136260452626667,0.0154383951253475
0.0523518742458068,0.0735621572811304,0.0143103773280326,0.0211178645695848
0.0346841216342924,0.046416106265883,0.0201222756742088,0.0165147380210397
0.0358742487196199,0.0433364091168229,0.0162401682013504,0.0173218103065262
0.0334682685276665,0.0417542127458368,0.0192437128820715,0.0198400408933895
0.0433093885236573,0.0480721638802023,0.0188070467993399,0.0218022112619626
0.0308816135120781,0.0451118609092126,0.0987107903884382,0.0212673576580111
0.0361900494363912,0.0446313237832549,0.0472237546440362,0.0173134976668104
0.03868780379333,0.0586889231192914,0.0227902110284798,0.0174036339940084
0.0777818525417687,0.0535113120118466,0.0183860674795321,0.0203029295798557
0.0946450653973856,0.0381557995930565,0.0141245580587508,0.0143317150590332
0.0763625740717754,0.0441998973416705,0.0139060890105173,0.012584298922369
0.048777292799007,0.0463210697069187,0.0191389409574662,0.0168970561621075
0.0527354678077761,0.0352675880091826,0.0142586167884217,0.0144847421306837
0.0406471622311022,0.0403263143562938,0.0120405928527427,0.0133146652953323
0.0329582146464736,0.037415094908037,0.0175854614156312,0.0175231936196277
0.0473829199332024,0.0316487981624541,0.0132693532741621,0.0126235216233465
0.0468036781775233,0.0448187994046991,0.0138879601956146,0.0137081345247086
0.0352126872196764,0.045650073213388,0.0129884845916761,0.014434329676508
0.0300349541514412,0.0315449330114253,0.0144276584380297,0.0196964504047095
0.0404444137273359,0.0393554794166003,0.0144868878124721,0.0159568493557517
0.0423814272261214,0.0420331365635784,0.0123223203624287,0.0172275011863128
0.0288954674889267,0.0312396180199092,0.0154737160751638,0.0144715676106161
0.0269868409121552,0.0336490476815743,0.0129583854007167,0.0114917623275696
0.0377644683889825,0.0372192277381273,0.0141602572136322,0.0137215075539037
0.0262283221624237,0.0318949789881089,0.0126413442895853,0.0203345418032855
0.0255720298953472,0.0304352372724945,0.0105985204293064,0.0177354035540619
0.032445173848757,0.0438621163207599,0.014454867109797,0.00688636343377448
0.0307898986040595,0.0376176040766664,0.0133357803957153,0.00938518835175076
0.0300588964944197,0.0384749014420023,0.0129035936070215,0.012056028648171
0.0245640351619048,0.0335331207325422,0.0125576835581307,0.0151787194817384
0.0304940455007465,0.0352008608052158,0.0152476884721213,0.0120347521444353
0.0283449935298427,0.0270382326816621,0.00950962586154188,0.0183112599839957
0.026553666304403,0.0333284762408124,0.0118374736441997,0.0213017390924026
0.0278979009940404,0.0345171449033076,0.0113959512775692,0.0108945719235135
0.0285039049404996,0.0493091984471635,0.0124766790481111,0.00869891448933484
0.0263257639165944,0.0405160652869822,0.0116467102935823,0.0106257259951929
0.0257278366367944,0.0417662387553785,0.0115176841524491,0.00916718632798865
0.0308425227786275,0.0382291143219319,0.0106141066596287,0.0104048220744098
0.0272282387520596,0.0350931219063318,0.0112547090094337,0.0112557533965677
0.0257155193531095,0.0412487875156592,0.0128781628943622,0.00951121158877097
0.0252321438598774,0.0402217014464595,0.0138316013286481,0.00882111805726709
0.0270691376920701,0.0369551011810443,0.0132245524000232,0.00955689542171571
0.0296801216295603,0.0367356338187858,0.0131126570519926,0.00872151326958901
0.0258718564534991,0.0399909614887074,0.00965033920571959,0.0100506728449422
0.0279440603860486,0.0470966405995343,0.00983146903029517,0.00972510312311608
0.0221932400432916,0.0407036962885211,0.015448067518247,0.00885079874401217
0.0269828559179734,0.041983824869507,0.012612327192159,0.0123835591420619
0.0221311895580087,0.0399929812753443,0.0124855041296563,0.0112157368341044
0.0179145592336918,0.0340887540009421,0.011369825476331,0.0097630444278626
0.0249788465962128,0.0385658492998109,0.014888200394677,0.0114718313552101
0.023868066392861,0.0362787301161187,0.01144570333065,0.00993414979758125
0.0314979318617446,0.0297511514137573,0.011658761374159,0.0102305472330093
0.0353160941305752,0.0478865201500765,0.0113770262758901,0.012968205977667
0.0238942138835144,0.0455141277123699,0.012406354036652,0.0102346544696246
0.0408775518418194,0.0386546975810632,0.0157040498400987,0.0117403274565918
0.0423411326379406,0.045507378529275,0.014189350234178,0.0129746911825163
0.0422095688638166,0.0487093014953612,0.016082115952614,0.014111611567392
0.0440825774708393,0.060792703533306,0.0162260359680664,0.0127442653181197
0.0354858892178355,0.0498281973963279,0.0127786696834905,0.0156134614027562
0.0529252497846099,0.0515147419710468,0.0142579413422386,0.0183740133103588
0.0480261759862726,0.0504453776643973,0.0124950824848754,0.0126879802392386
0.0326528562451912,0.0407421489464067,0.0147517063574608,0.0129116610200436
0.0342051828170737,0.038342201654532,0.0124622785568753,0.0169970135397112
0.0422109618879811,0.0413536843334621,0.0139971825691316,0.0153911866335443
0.0362487720448726,0.0397432965262909,0.0158057167732106,0.0192672998192019
0.0383466050001515,0.0535545930564607,0.0117755259090016,0.0102553496288805
0.0354052075583429,0.0362089236352225,0.0153811761945907,0.014739031147424
0.0389199787084437,0.0505386854368789,0.0139919220523438,0.0148093478100483
0.0323163222602378,0.0322245412391466,0.0122106372404771,0.0152872296934201
0.0391937376179564,0.0462212378314347,0.011784903340711,0.0118324477964205
0.0369986907024501,0.0412348341001554,0.0153335122528779,0.016786344587429
0.0396324717507966,0.0451902164477933,0.0140606767516204,0.0118303842222914
0.0448084623260968,0.0588052923366529,0.012469608566797,0.0132626314742659
0.0424296174417693,0.0439877797128034,0.0135214725372725,0.0157071210673773
0.0420339752330866,0.0523019152991555,0.0162039290969833,0.0155068026748497
0.0473635750241117,0.0460061664744009,0.0153232595844119,0.0181641073397816
0.0387425681820373,0.0439641072722756,0.0135929902667296,0.012759245355218
0.0401380003496168,0.0538857408630065,0.0123743885536906,0.0137139244217744
0.0397056755363581,0.0400915854038901,0.0112857088236973,0.0113228012586005
0.0440881373594658,0.0380382497160425,0.0132149534475489,0.0116066499312246
0.0400448657044775,0.050427261860751,0.0133384855066855,0.0157305330435031
0.0435841566054752,0.0440823447683331,0.0142254704752278,0.0140223747513142
0.0306449459114476,0.0404026864886105,0.0135074064088772,0.0134677810873945
0.0399065225051104,0.0594995639469846,0.0127423144425662,0.0110495589635997
0.0384313881461485,0.0431986026090724,0.0110703165840266,0.0110420937439956
0.0365584107674537,0.0425149429723455,0.0139447456625627,0.0142455533051527
0.0318485472472187,0.0511510438947364,0.0118322510686356,0.0108735269980255
0.0397965522187537,0.0484125561899111,0.0132827018527136,0.0151301246737304
0.0451481487995487,0.0440134967008054,0.0138675229064316,0.0114204508092323
0.0400723132173383,0.0401492876084943,0.0143821691009058,0.0177055431542707
0.051364731169962,0.0457586112076387,0.0162303994333099,0.0116769026570106
0.0389282470444409,0.047264421910313,0.0154899849340052,0.0135281868455468
0.0397202163326909,0.0492826270295099,0.0144340007981678,0.0156035618425614
0.0460772811515762,0.0533794494734005,0.0159444087107495,0.0151293706647121
0.022513133529902,0.0360884775178154,0.0122791613008629,0.00951563466579254
0.0244349673771524,0.0401816589817836,0.0105128755582338,0.0100461167337198
0.0242587031698618,0.0429310574624577,0.0113696605251472,0.00911107326174279
0.0246911282838583,0.029611755381792,0.0105962991872077,0.0087963307333849
0.0286611437683459,0.0505219673445919,0.011134707156151,0.00902355157028229
0.0277736344072145,0.0492280599004992,0.0136390727650487,0.00813119761955047
0.0282984926339313,0.0380516988882908,0.0138000266127271,0.0086472752970396
0.0222723748436725,0.0401829982580689,0.0152520192550352,0.00945144674521844
0.0235725909253477,0.0309818640004774,0.013185616235186,0.00749616091189228
0.0238823089876713,0.0449174186029112,0.0135712446564188,0.0102643620820479
0.0222529875535766,0.0438226348456088,0.0153447791133097,0.0124399341681195
0.0272346234348918,0.0451489580469759,0.0322608430254533,0.0137373663431665
0.0228105145608074,0.0647593567443512,0.0310679253460675,0.00893483868563653
0.0265466118166044,0.0563382812875333,0.0200167911931231,0.0095883121469896
0.0294982906480246,0.0535377582631708,0.0192877520844937,0.0154018930432183
0.0269414896753783,0.0548199013048273,0.037870538718799,0.00911950816283696
0.03417646546157,0.0503269189125385,0.0200640473969877,0.0116294373249827
0.0362234417378539,0.0489113078357168,0.0209478875933357,0.0137672448690648
0.036734999604405,0.0647865843563667,0.0158771074000964,0.00785937799464484
0.0399087280992377,0.0735471826562936,0.0145977700125434,0.00888466286810879
0.0446442646917364,0.0625077789969642,0.0148381736110421,0.00835205283551131
0.0443178923856889,0.0595029049819778,0.0118921051192902,0.00624893322726215
0.0408566675663119,0.0640488069110536,0.0155543341474569,0.00678814200674545
0.0459721231999307,0.0597900961517269,0.0151531325319678,0.0099725275398984
0.0428470310126129,0.0825482319789986,0.0108358319050501,0.00739147985999386
0.0444056251160465,0.059378821547653,0.016430515713648,0.00753333972242806
0.0400284390762125,0.0793113163326082,0.0209805216015568,0.00836739881521898
0.0372803120117407,0.0640811469684438,0.0159853752285731,0.00528788068826085
0.033805708151564,0.0746133181175503,0.0139526968045951,0.00495300997623672
0.0403771904248551,0.0659211069142193,0.0189276226363279,0.00577442788602239
0.0330949882459163,0.0897242871925799,0.0156227507153538,0.00710673588032731
0.0335311464844695,0.0615932287655646,0.0165930469957151,0.00497493369982913
0.0362903248103985,0.0596652892506892,0.0169121900282508,0.00525903999902558
0.0356107529419024,0.0565221853246624,0.0159130042034385,0.0043201289456534
0.0350607563939928,0.0598899936321418,0.0197006495182797,0.00508669442351587
0.0347115605350252,0.0504231129912758,0.0155376991039207,0.00470912284619274
0.0285276233958842,0.0579303528857544,0.0171362907004552,0.00400492664488162
0.0285402299926245,0.0667261926753638,0.013143319263312,0.00475424886523082
0.0287871639246721,0.0633035458836324,0.0135258331944978,0.00447025759783351
0.0322016324479758,0.0499440256180268,0.015344228932103,0.00370270106905192
0.0287307272780294,0.0510189441981807,0.0104562146903381,0.00355330319766229
0.0289379704710854,0.0487599814484776,0.0111938525369644,0.00332837112517388
0.0244597128104956,0.045204173955106,0.0144966137384651,0.00336336233795793
0.0241272165620204,0.0403715172414024,0.0144359518303523,0.00385544289597262
0.0274542936546876,0.0516397562182685,0.0136093029574354,0.00272043107939544
0.0236228891696443,0.0445258379066874,0.011869193386019,0.00334234155797381
0.0244901758552784,0.0619618673363027,0.0121153213661046,0.00213851424372528
0.0310211336984552,0.0442428546927705,0.0125975820467457,0.00387315714715973
0.0299649200750298,0.0527951719017841,0.0129415239317843,0.00214038695597874
0.0335345105811091,0.056684616876859,0.0116583494536193,0.00344551823849632
0.0255749014978474,0.067344978297326,0.0134568475395596,0.00257605657683764
0.0352054697750204,0.0539360598183904,0.01514516333397,0.00378414659108984
0.0217294761789086,0.0370759526959807,0.0130240878137809,0.00252944704823568
0.0274076010807762,0.0467141152630035,0.0140018047788217,0.00267925360761848
0.0239442251700411,0.0440534527311732,0.0119835513218656,0.00203330630045673
0.0237773775621622,0.0481106241125838,0.0114888508122354,0.00322683682595839
0.0257548236160985,0.0480916391293595,0.010891362631974,0.00270586561939337
0.0226615146605966,0.049570724991477,0.0125396938075997,0.00335718900523098
0.0261140358543133,0.0552277259749592,0.0110105429037089,0.00241634985172302
0.0233724770513033,0.0462099272833015,0.0122183889174473,0.00231953626820449
0.0241079016643976,0.0291329190405846,0.0129990326618773,0.00950964643486551
0.0295774903057543,0.0304769577991609,0.0156917767141563,0.00740523653590023
0.0240529559928472,0.0265792393797992,0.0141246006910735,0.00610191347133894
0.0303633813785193,0.0335771656390869,0.0122014708777739,0.00876812283034627
0.0256545382516391,0.0379868767468258,0.0122807816643979,0.00882562662088523
0.0242608977619584,0.0316008762138776,0.0176159156405746,0.0133028841950212
0.0247726997879064,0.040697459778772,0.0382058722365037,0.0080165671318796
0.0305340624359562,0.034426717302001,0.0438969826136814,0.00943273631611761
0.0338759184340366,0.0384250823823169,0.031976960627774,0.00870323104425856
0.0302704674971105,0.0380424773212924,0.0294696654260218,0.0128434155236506
0.0288080206178855,0.033006673837099,0.0291606803225513,0.00871010610196765
0.0258668968366082,0.0349991120894452,0.0179313367882131,0.00868496890599939
0.0270080153974671,0.030131390771535,0.0216941708508141,0.00995856657373773
0.0287498426733627,0.0342189415279242,0.0246231263076158,0.015161135620494
0.0523449919252782,0.032973601984434,0.0218568972048428,0.0152502650333839
0.0289992688598525,0.0403440254891747,0.0246609834585817,0.0162592816069714
0.0284034432558627,0.0400077801839899,0.0234095692299883,0.0178027889090231
0.0349447988538623,0.0352731667363014,0.0356250739960036,0.0157163917706786
0.0402765538260428,0.0413026992637155,0.0374075049250464,0.0122776750438736
0.0589585474772721,0.0404858908053937,0.0385482022505816,0.0129656088278368
0.040191986610258,0.0338865039135752,0.0381363620439621,0.0168797703194097
0.0521784073770331,0.031799244019264,0.0433154288075972,0.0134448127982965
0.0449176141129415,0.0304021172538843,0.0473940876902443,0.0133108539685328
0.0417559183667974,0.0346772429139575,0.0660512532178201,0.0106067721388025
0.0529252148970702,0.0287753640371186,0.0459009603308036,0.0127685242402993
0.0387679387143537,0.0339893940184119,0.0471702352359199,0.0104033701953494
0.0585533855594101,0.0395633996376579,0.0532762133276476,0.0135150649466119
0.0566823317574099,0.0424967500665639,0.0362051629371801,0.0144444260296969
0.0500178686686754,0.0342009773672473,0.0452883156025129,0.0145012953848247
0.0620156869927443,0.0492573260632646,0.0433806649529895,0.0154712754343507
0.074296821583458,0.0514372909025281,0.0350502089348346,0.0169222444971789
0.0614410675635296,0.0420305418706094,0.0377810471377104,0.015840759119209
0.0626379278610965,0.0712875789308108,0.0363360412662289,0.0146800604767393
0.0596053244976347,0.0464869313873473,0.0335137312562674,0.0139949534304521
0.0604409522288588,0.0440439687904886,0.0265672282960244,0.0130081601513806
0.0551269767376153,0.0386560012059097,0.0330773201518408,0.0120020375867122
0.0543128423818784,0.0367669492475137,0.0240421959337631,0.0157313825769044
0.057114604860988,0.0359425053345314,0.0272099975096689,0.0135080513492564
0.048380622232856,0.0414963165859094,0.0217110092345336,0.00989762882671173
0.0570848452364889,0.0430162077244412,0.0228117172726833,0.0117518945305438
0.0632917233013588,0.03135354143711,0.0217257499516982,0.0132612399159336
0.0494144178164647,0.0303653096014697,0.0250439047472719,0.0118493971281272
0.0414808972360661,0.0360096578171878,0.0199528701849191,0.0168820350364768
0.0634422852471544,0.0322056649413829,0.0219335817675113,0.0137735925036241
0.0445155816158757,0.0358536232875704,0.0214389303356801,0.0109278559337422
0.0521126895404318,0.0314808597684963,0.0198575233640969,0.00936693207811972
0.063426876680373,0.0416659294342316,0.0216505317386609,0.0121112547428427
0.0416781313342089,0.0369472708626444,0.0181830758022164,0.0097109710280709
0.0550404485458831,0.0361192484060898,0.0241242863256211,0.00931955486728929
0.0513710051280582,0.0395315277852247,0.0203801380914723,0.00934276669190616
0.053386928415648,0.0360269812108835,0.0209540268673194,0.0101785961038441
0.0494417418032214,0.0313710117333502,0.0188175869589503,0.010690210388368
0.0585429678107856,0.0367888031247633,0.0227478592561753,0.00863717118478493
0.0438832632212495,0.0364657717624364,0.0190871092355455,0.00808144435572602
0.0482121283109041,0.0363025785613109,0.0228740731890839,0.00968004554769929
0.0333460515392578,0.028986170855547,0.0256537375099447,0.00929659149409783
0.0488974395612173,0.0334688698744966,0.0214923373889617,0.010545998551038
0.037320735017276,0.0356356622536129,0.0201458990057507,0.00786819583576416
0.0513591360973928,0.0323492707847548,0.0207850462055898,0.00966778560508882
0.0437776717664922,0.0363123909890348,0.0168508676322554,0.00871565662395963
0.0391725801734638,0.0557137180378632,0.016137388184984,0.00492274592993178
0.0290959656155138,0.0432332359669388,0.0175136080343994,0.00514840279552403
0.0298378221765206,0.042276864689076,0.0182817924920495,0.0033999685769696
0.0258326174507592,0.0521126388931937,0.0255823554772329,0.0099305448759004
0.0315106059285008,0.0577733947090275,0.0229053287118555,0.00714324840990928
0.0291100946940573,0.0418529021920096,0.0166659940874683,0.00526629007694451
0.0261205692594688,0.0438544749378577,0.0230080925607329,0.00418450132427174
0.0309836545373933,0.0525515758917638,0.0222133252997,0.00507368631350713
0.0262354088583267,0.039341011524516,0.0175812512148521,0.00493432511751101
0.0381875420469982,0.0496321637852166,0.021236931771609,0.00451674736258446
0.0360616625842012,0.0365160116253625,0.0166888348974802,0.00480909542731828
0.0453232340236533,0.0412798843117675,0.0219148245953829,0.00399430429807163
0.0442350469349658,0.0487528881096794,0.0290318699195663,0.0087784273111211
0.0326383961582608,0.0427653078619473,0.0279737352449618,0.00526503082355555
0.0372697812360606,0.0447736002350005,0.0343960821709663,0.00463469429194179
0.0366739703792126,0.0420665430373156,0.0544243572903082,0.00456625908039731
0.0350095390424583,0.0518412161642527,0.0596059996349856,0.00622592461041991
0.0427043245538268,0.0432641481562577,0.0361318784119213,0.00414059077103352
0.0471635589523952,0.0413097305520831,0.0248271333702374,0.00446264409035375
0.067851873224295,0.04576247574311,0.0355946553489313,0.00627919247767273
0.0585441695051548,0.0407467812168794,0.0455356216323432,0.00449509893820721
0.050398487584381,0.0421193722377819,0.0482490095260054,0.00492593383613611
0.0571202687409924,0.0415627661775869,0.0208250363318718,0.00507429709687876
0.0549031321356795,0.0376423776396747,0.0406028015445497,0.00594191911592268
0.0341935510709552,0.0474912912771258,0.0255546438606677,0.00510439733054688
0.0358438926128139,0.0448979276959394,0.0319892612501695,0.00457280865398722
0.0391931083993997,0.0447914857157594,0.0249327675782978,0.00566751978239769
0.0333314177266334,0.0408544075379673,0.0225462361009292,0.00496857612989614
0.0570715790105572,0.0425421548287503,0.0222887336699758,0.00516312019688284
0.0511031165030891,0.0416883547267601,0.0283370327549582,0.00479895455132294
0.0418654976633479,0.0487629089098579,0.0234951956922053,0.00618571884867195
0.0518583011105257,0.0462332747400829,0.0273307666869671,0.00521009446676463
0.0380821005618097,0.050313149211825,0.0223898980627647,0.00474564900423832
0.0507496836541502,0.0447416401973337,0.0396467871795504,0.0039714199590805
0.0716678151857639,0.0569153142779941,0.0363821742499853,0.00501861203184819
0.0644891853957616,0.0560847405967156,0.040803160514527,0.00452713939556317
0.0698513905287649,0.0515542486594302,0.0272073814000951,0.00443012208763892
0.0440367397334626,0.0577148944681922,0.0369124550751473,0.00488234647828629
0.0464676381566133,0.0502019588361234,0.0314902054866436,0.0043350460391774
0.0577023459173362,0.0599989936452325,0.0297694380212303,0.00428182392759279
0.0400298389908927,0.0565646717563001,0.0273114755495618,0.00455593848882752
0.0500944838293606,0.0569285822811243,0.0229811261989868,0.00520942220391473
0.0479974975024197,0.0657743321812213,0.0281392721887688,0.00411019921592657
0.0474541150375849,0.0546067743052493,0.0200867058400841,0.00365283944323591
0.0341450602837519,0.0376405066039328,0.0294173988400755,0.00379748271770896
0.0447069626816976,0.0368894526474215,0.0259591622729433,0.00366025228426693
0.0446614261721553,0.0355324965248878,0.022586181750452,0.00377410006553468
0.0382601782080828,0.0409756758390816,0.0230129331804072,0.00333880098872401
0.039398620119693,0.0476136589083524,0.0227410835717814,0.00530519975340174
0.0380545737614544,0.0522902980038921,0.0329470652250194,0.00519800181992166
0.0465078509245086,0.0435306998765361,0.0232647876751365,0.00368136136654402
0.0337806245798666,0.0419608898852419,0.0202410751490894,0.00395102485516137
0.0360990296787738,0.0462682769684843,0.0220381809912191,0.00327392307965194
0.0367876711255552,0.0527858556494246,0.0269503489006124,0.00395910730712878
0.0361228430045926,0.0371827880591115,0.0169860026359943,0.00371835110657075
0.0332782221221858,0.0456128182247294,0.0249456961303411,0.00342639682049251
0.0367434290761679,0.046275409595757,0.0234387988773126,0.00310829008071647
0.0355474411376369,0.0419527469030037,0.0237356325222116,0.0025900005664997
0.0369986107489206,0.0390382246126283,0.0224755192990045,0.00237231794724726
0.0347821328069719,0.0424224611898628,0.0223439049637397,0.00350526698189277
0.0492586272266577,0.0562772455421394,0.0188720556288782,0.0080318356439598
0.0454088871505759,0.076465314863968,0.0209925757287444,0.00746738928992872
0.0461114378341554,0.0750015978141174,0.0212763471034859,0.006662910754627
0.0481756980451031,0.0773951794874545,0.0188804987215592,0.00789769911691985
0.048594657957407,0.0667102723704642,0.0214093358457703,0.00716702557276778
0.0436290518669437,0.0710537095103612,0.0213356100826485,0.0078059083705784
0.0409473301719919,0.0786938917542194,0.0232466806348835,0.00759830575955396
0.0480509591363282,0.0706836667910787,0.0188538429189244,0.00730376139960111
0.0379627400823763,0.0713680816066521,0.020168074567088,0.00585526716604738
0.0416821477960806,0.0647624417845898,0.0244074305439368,0.00517931262870884
0.0480613044694818,0.0629092410844562,0.0168271977965257,0.00587799579961613
0.0394779599114368,0.0478233301239478,0.0156056792454679,0.00774230542957557
0.0438478771561385,0.073353843305369,0.0181220904518678,0.00388658206267272
0.0505538383402179,0.0709789278885454,0.0177910922532139,0.00686708454738822
0.0401746985192619,0.0615026132436368,0.0145989966777183,0.00919330533034187
0.0551273755281172,0.060794539399228,0.0172588428054563,0.0118218334125168
0.0531109280798933,0.053368897542486,0.0206953751390999,0.0120731218704804
0.0418120644376194,0.0647056359631648,0.0272650448135651,0.0145373975741515
0.0421199491098672,0.051540366329159,0.0153557896633659,0.00898572591522165
0.0555093647622343,0.0677502141691923,0.0209991227016134,0.0109208509657349
0.0414106678369155,0.0659214357967211,0.0179851067105604,0.00721569461832054
0.0632792352007085,0.0522500364366443,0.0425136016296912,0.00562927958548954
0.063489719113049,0.0521529270742122,0.0384205791425635,0.00586980529462204
0.0722145146653503,0.0712698361189408,0.0222754321533981,0.005893598607635
0.0583065674944057,0.0734906800557276,0.019734576648976,0.00543123943902294
0.0751719697484746,0.057284258650947,0.0268889739500135,0.00611139213946952
0.0784729244963006,0.070864672317882,0.0291196846192526,0.00504872485885477
0.0670931189082619,0.0657082066355567,0.0187356623293168,0.00560577190067237
0.0637939591559085,0.057561663170783,0.0148100763302058,0.00382925066405088
0.0595156923868768,0.0482838978066795,0.0196782345199598,0.00681759527943209
0.0716331557439151,0.0517305119085142,0.0223630142302211,0.00678121732477649
0.0610503647329805,0.0537356798045957,0.0219772506748132,0.00502781883416375
0.0448141535153571,0.0658543031129379,0.0203418179208273,0.00228369884165788
0.0628833622813213,0.0513967810459366,0.0191773656887535,0.00481662491520265
0.0627819439529287,0.0508670349716325,0.0182882081985435,0.00516617594946383
0.0598283300877674,0.0547331589986625,0.0164053715241916,0.00620695059309518
0.0649669100260706,0.0466471411978499,0.0215607852437059,0.00732840412835929
0.0641415783749294,0.0540092263704874,0.0276433718963406,0.00664810387157717
0.0490824852471258,0.060325298852641,0.022221827200223,0.00770709654696129
0.056948724962111,0.049385889225286,0.0210021177020287,0.00567435675194015
0.0540268140142233,0.0498327462516029,0.0170709551583609,0.00499276586023393
0.063236471909054,0.0543286768752194,0.0187308729032703,0.00656393293956474
0.0474378916248857,0.0539843960240149,0.0201591129473005,0.00538615556521988
0.0548427084219602,0.0644121579688065,0.01954664546063,0.00508914766134497
0.0670732409643453,0.0523931119567971,0.022560356523532,0.00400187835061874
0.0560642938940401,0.0521537256257918,0.0164064039301475,0.00705242569075838
0.0472763469851104,0.0628055958192538,0.0190784996157987,0.00786850745422695
0.0693786206601543,0.0564389695762152,0.0160504019188931,0.00773273935008998
0.0689892998827856,0.0599749179104267,0.0161168743580504,0.00613295924755687
0.0703649510616787,0.0595460809007198,0.0221260584237609,0.008793336030231
0.0553732695154265,0.0457821459409983,0.017808016756298,0.00743888929103109
0.042939302543717,0.0721156190558423,0.0212175490164673,0.00856262533040953
0.0489744593243724,0.0507618319162963,0.0221288435532287,0.00680248947502266
0.0620636730082521,0.0407358745603189,0.0174932789963544,0.00645386664025267
0.0430165440804591,0.0461212307339591,0.0183656860739027,0.00581349313566878
0.0574191350585661,0.0492481766956762,0.016803457860566,0.00669380047086872
0.0531678847555368,0.0532116448973015,0.0165618844795413,0.00755116566119291
0.05148879531039,0.0513929132067549,0.0200494349823217,0.00544561945399239
0.0520433374621988,0.0508419921285109,0.0154959594910279,0.0075544582460012
0.0403403242571641,0.0524791805488825,0.0164995515394442,0.00829199850617157
0.0217325518398287,0.0234371066276382,0.0113399640352018,0.00446175820138925
0.0308456432423218,0.01788599400554,0.0145570949165784,0.00467237015833244
0.0225025718787869,0.0204375428391314,0.0127978619577116,0.00450541529448187
0.0266673076363168,0.0250857678244237,0.0129372392036686,0.00508771512980367
0.0244575748881239,0.0208980248285564,0.0116649579541379,0.00484080099090766
0.0259370553804727,0.0216680177662597,0.0133708646147422,0.00467658907479501
0.0266820183193162,0.0205098725290682,0.0122715698572603,0.00466127468094815
0.0215436549968584,0.0171215735007182,0.014165765816308,0.00461128684663208
0.023316893873724,0.0193947430419242,0.016186059729748,0.00432620110081556
0.0243546494682842,0.0237642394166456,0.0135796311314945,0.00522503380535499
0.024170227020355,0.0249908299444444,0.0146915169184925,0.00544550321668832
0.0228776935127692,0.0210494556250686,0.0148843382584519,0.00545044896557999
0.0238556614452534,0.0238145339082072,0.0148515974222216,0.00549930610114048
0.0260640845828288,0.0286372961200312,0.0138971715416631,0.00722427607104305
0.0218666841485756,0.0239164224838729,0.0162191045081248,0.00728082525279722
0.0274725503751224,0.0249415507833724,0.0146965189415927,0.00572765575737483
0.0266524167627009,0.0261845733323642,0.0207646835078327,0.00677840718836455
0.0257278175185197,0.0281582021703813,0.0178170967382019,0.00877321964406399
0.0240693107056972,0.0272504862131563,0.0180399210883152,0.00696889033777547
0.0246132804825946,0.0286004414022652,0.0160557603828172,0.0090745679732482
0.0300628269436392,0.0290924337526784,0.0146078148308759,0.00878808012292543
0.0221713093178033,0.0256317141429882,0.0159616490614727,0.00732431251551929
0.0292796896692386,0.035308127026021,0.0165631726060659,0.00785607625763729
0.0223340867254513,0.0320778188433455,0.0155662198613165,0.00748990052284178
0.0216624505807717,0.0289361914221326,0.0129562775783323,0.00773716205566179
0.0306954001668796,0.0333835817388396,0.0137098585227507,0.00753542619315683
0.0313899042053037,0.0334434783692391,0.0194406175629447,0.0062573219547715
0.030498200509793,0.0352632522779047,0.014744228174624,0.00693406706667077
0.0314727703334706,0.0296855354720465,0.0154155214295044,0.0078625998247851
0.039668184167593,0.0318937450324434,0.0186658602184447,0.00628566130387368
0.0293537134851132,0.0300326341090348,0.0175282691112895,0.00660152879991754
0.0302608383435891,0.0278379186867783,0.0170310498784342,0.00640128559849823
0.0389113145227672,0.0348303835121172,0.0169806065228186,0.00446188173543424
0.0415633898065065,0.0345367500666224,0.0193878514721584,0.00607441748803226
0.0363089242280755,0.0305922555900914,0.0198949656053953,0.00706744149579148
0.033708506132083,0.0331236203846021,0.017715033070035,0.00696906439688362
0.031024339459908,0.0305443845908306,0.0189468828310652,0.0073558287674129
0.0279224168518852,0.0286653279264613,0.0139422105238631,0.0067198471812074
0.0309763813839806,0.0317145945645744,0.021080374901552,0.00788808403862147
0.0372822370501335,0.0308358181361983,0.0174017441209547,0.00770647511131489
0.0314901740853202,0.0318291854889472,0.0149872114321245,0.00642414636940619
0.037902147877819,0.0381864734730428,0.0180464376519,0.00565728770493211
0.0405557056860402,0.0415562707211129,0.0267757605995654,0.00747787622234164
0.0330900655142496,0.0301391431196355,0.0220442352859216,0.00858077823808469
0.0241499304599943,0.0330027947844398,0.0199609332574019,0.00644378056155391
0.0366513818602549,0.0382420489213639,0.0160634613823564,0.00677155137918663
0.0357884239987273,0.0307125743240794,0.0193081976301316,0.00584849508262931
0.0356437155488189,0.0369721484159439,0.0192907866741426,0.00780603475004345
0.0380084675536732,0.0298811610034232,0.0212857143716593,0.00620826765951958
0.0267857500721093,0.0287504864276275,0.0221189268139123,0.00572641646248805
0.0421014574119043,0.0293890852309647,0.0197705497724999,0.00399384945599135
0.0347865272984446,0.0243647932666085,0.0129400079774619,0.00669522422424161
0.0262642403739652,0.0322510398417646,0.0165892847432814,0.00405604275976557
0.0320230404493181,0.025159217536024,0.0143205756839826,0.00429286455328007
0.0367956008571695,0.0210664549454709,0.015357005260409,0.00281372515781876
0.0317652198691067,0.0257110682795211,0.0154234009406912,0.00479042480101444
0.0255098657052385,0.0214530618513244,0.0155323834377793,0.0063046728821967
0.0429724954170389,0.0304545495835854,0.014387565603459,0.00547802301354178
0.0212713027448788,0.0292850483026511,0.0111895987187375,0.00786079159348863
0.0326195813107424,0.0228945285744134,0.0142997322833767,0.00662418529218592
