0.0419766050325466,0.0393457597953729,0.0111698877361573,0.00710868786720345
0.026880280469953,0.0264687422761986,0.011126612108962,0.00725233475781309
0.0229559693194095,0.029653654688212,0.00964346986567062,0.00511960331487416
0.0271545227237387,0.0294934669559881,0.00932797461795182,0.00648780877386613
0.0286297606611328,0.0292934143093406,0.0108412189650139,0.00681881019998037
0.0248829781342022,0.0328967410615906,0.00905931708341332,0.0046980642804803
0.0250759491338367,0.023618916494099,0.00906324268822978,0.00909647730316709
0.0212733834061982,0.0311399965509283,0.00942572824352639,0.00601515292704941
0.0282451907544311,0.033682535430204,0.0086987421131196,0.00776043603539802
0.0274925836342731,0.0244321684842824,0.00889478894247456,0.0052813043369287
0.0314288055082477,0.0342669580531089,0.0091499632841098,0.00673031909105654
0.0272419002011068,0.0292947494390205,0.00824475438481445,0.00632385054179458
0.0237706673945337,0.0320636866398646,0.0125410647438376,0.00426061898877093
0.019845782383515,0.0278996432604197,0.0083853923747499,0.00548721176664895
0.0281373132102889,0.0392784194002037,0.0104836381318361,0.00419548688920487
0.0312851609911845,0.0331288235372517,0.00963541330949433,0.00459311544255699
0.0228460924834106,0.0235146352571947,0.0111548470542599,0.00496126316505223
0.0305530988620351,0.0376620135028463,0.00956130147579712,0.00472383309488777
0.0295532351176841,0.0268692922691574,0.0122218418911104,0.00568340151813156
0.0248589924007039,0.0290167547851386,0.0104888823068178,0.00456299801019359
0.0191836554132344,0.0321676582883087,0.0136513621906211,0.00427598033757932
0.0260078296877972,0.0282528102275775,0.00909988040733258,0.00552304931867701
0.037360429206306,0.0300426359029565,0.0126590226654988,0.00880829661306342
0.0234366670824824,0.0354727972056252,0.00826799497699108,0.00374435844867713
0.0267894795030281,0.0296903090924936,0.00907978505902777,0.00522097281394903
0.0405895731023985,0.0415281851891271,0.0121929169598263,0.00589010359770901
0.0274066787568973,0.0239571862641281,0.0136529627775227,0.0057067669262255
0.0363978742742792,0.0290193732658874,0.0120123684097441,0.00560904836988124
0.0274723321295118,0.0303638055204783,0.00971908373934498,0.00563586411338018
0.021321657904957,0.0237445918283146,0.00860486849889942,0.00260725189028887
0.0246213746622011,0.0294656485877272,0.0100582187869163,0.00576380485431247
0.0394168190079502,0.0322056217793499,0.0117056261179007,0.00501768375084418
0.0204151624638841,0.0259266415105907,0.00986889300007641,0.00315338870918141
0.0244379291525647,0.0308826955907696,0.0105990453840912,0.00565153319565893
0.0292075106239626,0.0357169265329047,0.00995090980273368,0.00551428854926161
0.0347098242362241,0.0277946090075761,0.00791991731895242,0.00735867305429558
0.040653838736157,0.0288172107275882,0.00911591125828266,0.00507942385119186
0.0278552823241655,0.0260369083715015,0.0088039272195442,0.00577578816189182
0.0278818879493237,0.0239431202900188,0.00838481741769391,0.00457386335449584
0.0226588515029546,0.0224807054637832,0.0083773917315621,0.00469115920759701
0.0239780785389111,0.0281807108516623,0.00947905129189903,0.00345840391467055
0.0217731779201577,0.0322214505474199,0.00964598970411437,0.00413059232906188
0.0242858527057479,0.0268606967279556,0.00676345333185578,0.0041482168699269
0.0283531265280261,0.0429785617385127,0.00970989664786022,0.00588062086611535
0.0206024754729912,0.0298459090287466,0.00867436418001758,0.00657028339639438
0.0281012315872056,0.024228452028739,0.00965110932908126,0.0046836927644597
0.0273396282354592,0.0238981260244202,0.00915125473665657,0.0039309277818367
0.0202991753355151,0.0302341156955605,0.00942930018760884,0.00434737394668262
0.0255018240619048,0.0305337206568256,0.00886668029651008,0.00572231063387399
0.0223205955593789,0.0267092209100974,0.00861525711384674,0.00494139694248953
0.0255059311746985,0.0268869833193134,0.00825621472746115,0.00316253212154038
0.0267810076503873,0.0308290504793999,0.00982785993937835,0.00457443010232712
0.0274529252010289,0.0276933452663463,0.00786995511828238,0.0068057744579559
0.0196946964914448,0.033027731023912,0.0101805843537189,0.00569776770556774
0.0217509505914466,0.0226537304552424,0.00834186831900546,0.00475741980386674
0.0235573688449516,0.024043802067466,0.00980352853276545,0.00371374279750211
0.0240552269001232,0.0276272487478655,0.00972637583618691,0.00382076975196376
0.023867813301654,0.0246270525886739,0.00823097461910888,0.00483642795603285
0.0255825511239114,0.0301092787275281,0.00855534401637446,0.00412820137398907
0.0257606551228856,0.0280239393694058,0.0106768934635225,0.00421267837917095
0.0234948323932767,0.0560866378065052,0.0217806357928426,0.0041797823526595
0.0276884783608701,0.0652863793823783,0.0188081792801642,0.0039627440042834
0.0284479138523519,0.0539078370928432,0.017167276454714,0.00364990929614505
0.0291319406668014,0.0546309366733495,0.0151390440068904,0.00284719901826498
0.0388801028632691,0.0587914045265045,0.0185613741327281,0.00345111566751809
0.0306799839053274,0.0530630403110012,0.0139012308811577,0.00330785264242671
0.0263706305109827,0.0490853736268987,0.0182491122471229,0.0036396106464622
0.0302332388640337,0.0496855103544751,0.0200380582847992,0.00327149651505198
0.0319987315560809,0.0606854488363063,0.0173047401115991,0.00367334548240718
0.0236123188457416,0.0551804652140123,0.0163946624400535,0.00398724893718636
0.0169662181549497,0.0346488556141275,0.0134733734410878,0.00315497393488098
0.0273818793979959,0.0743886410777862,0.0187340357542199,0.00404512624717176
0.034137388459464,0.0487904617431224,0.017621106686664,0.00420436106983004
0.0277967453891197,0.0608049190800514,0.0189557605535556,0.00376365804421821
0.0239447623950881,0.0538043671265135,0.0142439005623373,0.00450930749837257
0.0275294330438369,0.0463359462360906,0.0155104453716329,0.00408962639861642
0.0323979250694062,0.0489362316261086,0.0190113004704535,0.00342669124888212
0.0364247765341347,0.0525936778030101,0.0149424061537502,0.00439590091811835
0.0318174110632572,0.0592256441043048,0.0190045885514136,0.00399894589011849
0.0312532002939599,0.0504185857517855,0.01904158865921,0.00420117598070468
0.0285199780379287,0.0486575056098359,0.015702248405322,0.00655894422918957
0.0315382659842331,0.0566720151616625,0.0161627085123097,0.00566140617183081
0.0312686057345964,0.0504271826170333,0.0184699400208077,0.00529880941935711
0.0317579947602953,0.0681462716127095,0.015220598854396,0.00659619587976505
0.0261409161805946,0.0508736872225483,0.0171797152644237,0.00424684511810388
0.026480503818902,0.0590542466004183,0.015126995026408,0.0056523722141377
0.0315654138823192,0.0444812269790728,0.0128414579870026,0.00475673036535107
0.0287784605472995,0.0471271955062798,0.0156899749168077,0.0059740275831694
0.0384997590529764,0.0559051730011833,0.0182315529244562,0.00490695095301408
0.0269320407982665,0.0561663680355336,0.0188489923477228,0.00535897876507915
0.022670655761317,0.0518331230949989,0.0190031279129114,0.00447570171328125
0.0370503594337226,0.0564641459580242,0.0236264605170721,0.0038739746866461
0.0313871637704602,0.0683084165390798,0.0188277431500037,0.00377836905278373
0.0336085573151452,0.0637320783255395,0.01750221123283,0.0042238089751003
0.0283672713526787,0.0501272844078711,0.0200312964177196,0.00575562990354393
0.0313680089248499,0.0536114546006501,0.0166597053692636,0.00428508908249587
0.0274853629577858,0.0646944337876992,0.0196225943938996,0.00470401367647753
0.0294237286352894,0.0396535683173172,0.0157342710785198,0.00646838287746202
0.0279713602381076,0.0590005379502375,0.0145263221043608,0.00400430034791968
0.0288485741611833,0.0401651520780974,0.0179739142333601,0.00407410277670202
0.0305540882122124,0.0505112441195829,0.0137422753465187,0.0035406861611813
0.031799238478505,0.0618652019945563,0.0210069581270614,0.00375183344601439
0.0306235401010007,0.0481490266748308,0.0152980582765152,0.00371108047778093
0.0271853098811574,0.0419736047438069,0.0157911297794674,0.00386444286653491
0.0286501266096862,0.0409675060908893,0.0149081520224127,0.00436436287245246
0.0232240289283486,0.0503611506943546,0.0136017747453256,0.00402758336290811
0.0414860834725473,0.0520356883379379,0.0160994690898145,0.00412661366552425
0.0307745884209567,0.0594010228484153,0.0193029056050379,0.00423430903133681
0.0306472625371606,0.0474936725526044,0.0173340130286535,0.003894253731089
0.0289272026804006,0.0523303579720544,0.0146261895848618,0.00326314205668967
0.0282399335996598,0.0414685637702141,0.0148928692496105,0.00370753839630159
0.025615956374175,0.0441098100754616,0.0166619417457126,0.00401134615586642
0.0333506054589112,0.0453711992285489,0.0153004576510331,0.00387440888825856
0.0292072713318334,0.0460413620819775,0.0138884985333483,0.00348189097492054
0.0324400069710033,0.0379371883751695,0.0180898408302701,0.00349278599146047
0.027875467222652,0.0422063221038495,0.0134265600245218,0.00258657803513352
0.029884450929142,0.0376643122792151,0.0159384343452812,0.00420393372097837
0.029018074524952,0.0570923673208622,0.0152711014149353,0.0034931962972136
0.0258695577235913,0.0528066633807309,0.0167878083645089,0.00294060178524524
0.0270752399940237,0.0568779463125956,0.0192019636413768,0.00419836126916694
0.0409172198690481,0.0124038607000344,0.0181919687048346,0.00304895432389634
0.0256325186875322,0.00987815600605819,0.0175309493678546,0.00248774231992237
0.0455282231716439,0.0174172228440932,0.0286866354289748,0.0037286563304402
0.0299233022379123,0.0136232710484663,0.0231803612123844,0.0034588012666215
0.0242146734382317,0.0127763908984258,0.0226462877760236,0.0030031670178487
0.0271791942661373,0.0120739241536867,0.0230587294570419,0.00274258856070098
0.0309988502355046,0.0146492809482032,0.0262609675915506,0.00337775689661436
0.0296505442633757,0.0106010274602,0.017109709029679,0.0032582135803953
0.0246191852513393,0.0107181637312469,0.0250651980582866,0.00224599922574639
0.0318367528055363,0.0122114741319641,0.0215073165847319,0.00376791460986629
0.0282512585100849,0.0105376566868918,0.0178126547887443,0.00289329803407177
0.0292013852017329,0.014337400795148,0.0234689100122198,0.00298221507325002
0.0292778080274033,0.0131064976136241,0.0212689569199753,0.0038040771736321
0.0274804209809529,0.0141529496025077,0.0226442954216693,0.00289238351987088
0.0350358835641247,0.0135669200541214,0.0182618362852922,0.00357445882060159
0.0293033324749105,0.014578187704747,0.0227307403469835,0.00325030362806612
0.0266348699269676,0.0133851443335712,0.0188624709530516,0.00209434214307658
0.0360995460669407,0.0131323911540037,0.0222120112832247,0.00200632478930091
0.03071708699696,0.0139954815259201,0.0205440656825334,0.00204541624131306
0.0336813237051569,0.0127874551046192,0.0206687825279404,0.00213722274901889
0.0297907720243024,0.0116591727769161,0.0197555187367893,0.00215297886735416
0.0269423440866077,0.0120958826494101,0.0271591467861801,0.00209898692459085
0.0261030349507666,0.0139849336857012,0.0239052832768449,0.00204609187009061
0.0302196527056635,0.0122944511383143,0.0228869083580981,0.00259002080804693
0.0276614242245284,0.00946760124443361,0.0209055682474403,0.00207579262055002
0.0252938460653319,0.00994544406291844,0.0180472445671617,0.00194967629234091
0.0280748780182523,0.0110742806122312,0.0237205570695561,0.00203595761541795
0.0317687004971364,0.0128177017834927,0.0216602542037437,0.0026485740296767
0.0288880171153382,0.012525979634945,0.0199783869720455,0.0022277146040166
0.0313323314665992,0.0132754431050418,0.0224031484423969,0.00208795421311235
0.0291735373429667,0.00985242048103013,0.0231855065016185,0.00233452367039155
0.0284102484587252,0.0109675797312995,0.0213224655113882,0.00174279211418732
0.0344815530158072,0.0112548862450397,0.0264061040349807,0.00235471408604642
0.0259555191393432,0.0148016222444868,0.0202920987647192,0.00230752622430986
0.0281315197106835,0.009597103219752,0.022363548774421,0.00169580550588181
0.0299953013794563,0.0135889036288257,0.0243369171239226,0.0018662964828118
0.0274426936161967,0.0141474941711538,0.0212427418854778,0.00235816536319918
0.0283557709869328,0.0133908622164409,0.0237168400121041,0.00215316659812534
0.0333107416029537,0.0109542565406404,0.0261697950377235,0.00232414976565785
0.0288364149923806,0.00891640243756311,0.0207378045453481,0.00205288802354917
0.037690711216125,0.00995775319301,0.022498436002205,0.00174367512762827
0.0334552724696295,0.0125662861823272,0.0230289002219399,0.00162631763761622
0.0371966517474053,0.0105366680511765,0.019131649356793,0.00219314048484372
0.0296171577162605,0.0101786240071916,0.025329543971394,0.00202078622552517
0.0308721168655171,0.0110918836098431,0.0189149045345328,0.00193044984125961
0.0341491458442533,0.0122102389997812,0.0193638122938732,0.00202091849288878
0.0294805595689541,0.0114432417301227,0.0248747085825575,0.0019208776718738
0.028164615192958,0.0139537048274102,0.0205706218611145,0.00200047119322004
0.0347573472214631,0.0120928532303322,0.0233645691652439,0.00204464484803234
0.0340853897452056,0.013227288032511,0.021889494749271,0.00232304262007422
0.0356671614695353,0.0137347485293207,0.0211442238266545,0.00173364933917641
0.0351996990613657,0.0152186562696095,0.0229645686490686,0.00211184285802842
0.0327780098426396,0.0124962475788428,0.0231470024762405,0.00224418325830623
0.0289638477522396,0.0110105651355381,0.0197435623985533,0.00169851272489498
0.0380864690627901,0.0115255301967334,0.0224189216307702,0.00204406497253694
0.0297232176655183,0.011857393336552,0.0183022044846287,0.0020209951790826
0.0354127920237381,0.0125853727275612,0.0221684620677958,0.00211308478556333
0.0367057794105533,0.0131610578071925,0.0183640386578809,0.00202302220835465
0.0328923949772753,0.0121144350203293,0.0250613171417069,0.00200089859511061
0.0280916409526038,0.0131443512130106,0.0214991881653809,0.0022649794307002
0.0272220693756388,0.0222372446354595,0.0091535849795912,0.00233796079539195
0.0257613371885916,0.0157996979173924,0.00599945802873245,0.00164591626959265
0.0312384745159692,0.0180281367369589,0.00823689365762459,0.00239465631325648
0.0246680835109213,0.0156453825986838,0.00810986106628468,0.00211368394602063
0.028174008726322,0.0155502382837607,0.00698537545294852,0.00202398316163537
0.0242290660515245,0.0167422537680592,0.0066983774885414,0.00154095466625817
0.0272074082006241,0.0140182877223394,0.00644546480564928,0.00185554466123734
0.0210616688157807,0.0190652561551206,0.00809357588755427,0.00181753917069693
0.0232545981606406,0.0164818205961739,0.00801535530745892,0.0021053507115128
0.0291365320438551,0.0176859560873231,0.0077613657580472,0.00236545435406415
0.0266467955798319,0.01931946840911,0.0069863764717072,0.00198883831410339
0.0226392933128357,0.0151423843247108,0.00595431237282058,0.00196029830711251
0.0262351432671742,0.0203820687325394,0.00978243800944793,0.00229054597171169
0.0265846618588279,0.0158014514126768,0.00687135324314967,0.00200720830627857
0.0229083736652425,0.0202832835807586,0.00788448422049375,0.00186789932257382
0.0210451721978477,0.0169721627387204,0.00780120385917758,0.00146305014677918
0.022197407632987,0.0152900281216214,0.00705942312977925,0.001845346847182
0.0281896707237462,0.0164592018432721,0.00644146368986454,0.00197213113148279
0.0332789547118315,0.0169595969902841,0.00682065395679582,0.00211859183181372
0.0297492898952066,0.0182686040569924,0.006770307746254,0.00165532689557343
0.0279983524550858,0.0158110566810814,0.00680847304491276,0.00215721422567311
0.0293434657813045,0.0155306447117506,0.00747685897639536,0.00212925936276456
0.0298055680919918,0.0166488612436472,0.00864287726968978,0.00240373516712859
0.0363852549128298,0.0165820142755473,0.00963402453573648,0.00173005692513236
0.0276846553341831,0.0157175461714329,0.00811500734721529,0.00186669469464745
0.0285062482619435,0.0178669802804847,0.00778994133711781,0.00191973060721985
0.0231620190336785,0.0186645192622752,0.00784762087922657,0.00223364848315973
0.0326054741495071,0.0163911595276067,0.00884007684017192,0.00278792400938442
0.0233454568454641,0.0171686676169099,0.00735445937334015,0.00187986088154968
0.0333615545958486,0.0211815756839719,0.00904645166604467,0.00209972647796174
0.0256393415663865,0.0182195964047529,0.00715515731119005,0.00203480677688346
0.0295221182702482,0.0183848182121264,0.00697374400063522,0.00224681419761586
0.0324109567827832,0.0210145998960322,0.00895328092200711,0.00182976158482831
0.0327622137857057,0.0175057849470071,0.00783442905763758,0.00197696774709803
0.0283158003176888,0.0168246027634511,0.00886683717650886,0.00197858510997081
0.0240549017684357,0.0187729496346082,0.0143229900851515,0.00242068531590359
0.0258720038523999,0.0174038118512155,0.00787098706848423,0.00174992641323689
0.038213900666609,0.0169034432648379,0.00858588891040057,0.00238230325485377
0.0284070513236873,0.0173454361390361,0.00701792853472507,0.00186010495931992
0.0339202239395414,0.0200089472065576,0.00824546381909036,0.0020913963891435
0.0266700790317778,0.0176155189015885,0.00865032560799682,0.00170838450308315
0.0228839853339734,0.0174683046673829,0.0079722520007916,0.00207990020272186
0.0296962356222212,0.0177937492448,0.00732835764314234,0.00147892668720948
0.0300553730666703,0.0199854152196371,0.00900493695517383,0.00219303368722503
0.0287573634396567,0.0168950983671092,0.00705604870599851,0.0023711240984158
0.0309416235975107,0.0182832781020753,0.0105459754876943,0.00219428230370202
0.0249343479119184,0.0166828549790151,0.00777365572159505,0.00247066245223677
0.025733418127675,0.0184410157507192,0.00784888387582733,0.00211707931410113
0.0330280884567333,0.0196636503349739,0.00692099138003046,0.00227695271780584
0.0262139462212065,0.0166259269214321,0.0084058518635287,0.00193583947883415
0.0319098815310925,0.0162970785701681,0.00815750293045468,0.00235421043990436
0.0236058968757321,0.0142338124314647,0.00666674698339498,0.00204759412071163
0.0279887178776444,0.0180833336279328,0.00781882204116352,0.00215334175777148
0.0241372869246806,0.0220290755572073,0.00766371389890449,0.00180642702364775
0.0347092636191503,0.0171403605936612,0.00856845092688985,0.00225855015745636
0.0230394758901835,0.0169197200801663,0.00725663532701699,0.00203641947930118
0.0314152437624707,0.0161625205206966,0.00843967561951108,0.00183280506833627
0.0308248457747436,0.0208891101569838,0.00935558484026068,0.00250272925565904
0.0268436477959958,0.0194412140038852,0.0080129399872814,0.00269442404010874
0.02808247070819,0.019400939766673,0.00889211412656888,0.00225237715833213
0.036521932533036,0.0413061385944287,0.0141161290784097,0.00237002023780161
0.0316623568590974,0.0410038804263231,0.012460861416981,0.00299318247292266
0.031509772048892,0.0430062103299134,0.0159944576679051,0.00329732844271089
0.0287147601296261,0.0309632565763149,0.0162417761661024,0.00311803494632209
0.0280756907667068,0.0457273651158728,0.0181260786509192,0.00304983474413911
0.0273982148340768,0.0346182288949201,0.0122022354181879,0.00325714327654819
0.0341717731035436,0.0376523812813001,0.0202690326657256,0.00340012155966307
0.0292156965376566,0.0395830288607613,0.0158412188329113,0.00297783380912307
0.0402939788509546,0.0436181021448779,0.0151032005665253,0.003540271295609
0.0296305961894634,0.0329614526950401,0.016139324824327,0.00301447332548008
0.0339036488355847,0.0523402808973927,0.0167219869311143,0.0034972632692003
0.0287171940572836,0.0411336740989986,0.0185257250879473,0.00382915021744601
0.0249246135223554,0.0294974160001628,0.0162459652862159,0.0032317858727202
0.0303306393451133,0.0405344016483727,0.0169897634393514,0.00297002499206273
0.0304561051075873,0.0365506888353972,0.0197318616367089,0.00373947274425873
0.0305590890663737,0.0321278673948121,0.0177201294603569,0.00343537436573982
0.0393681154471967,0.0402160982899232,0.016781430919043,0.00261295075374495
0.0286406719791889,0.0359661216078833,0.0172028844426161,0.00322839501160919
0.0379063429818213,0.0391619742945128,0.020771644769561,0.00239277910718969
0.0250504270358057,0.0352753980397097,0.0180334484725207,0.00311676150552076
0.0289565271132763,0.0394534668867349,0.014915785219711,0.00240671462426855
0.0307398438861263,0.0342884802717202,0.0173096892426134,0.00339052881573779
0.0317861803886146,0.042538548506105,0.019198583706607,0.00306368403224275
0.0457560154789614,0.044006635384533,0.0199310975984287,0.00330612719475233
0.0307877198611874,0.0370964935377471,0.0172557965027397,0.00284479516760031
0.0354157738725148,0.0396028123784443,0.0165690269574075,0.00297541853790645
0.0295622509766636,0.0375043104255994,0.0151559266423777,0.00359572078024257
0.0304826394335382,0.0408305201110641,0.0157512880860006,0.00288959169146644
0.0288251189387914,0.0367629637218755,0.0193238149294484,0.00240643164190968
0.0437664570067215,0.0491115319047148,0.0207427530410251,0.00335077343987967
0.0324484816266355,0.038761361936144,0.0157591905405784,0.00258540839892354
0.0262151843448724,0.0293478084250176,0.019181555230613,0.00248420694781164
0.0246615101635193,0.0344735983869395,0.015172509675963,0.00390488524978906
0.0215829945953471,0.0319092537653755,0.0194743765230153,0.0028840596842324
0.0316578927587942,0.0419964282967375,0.0180785816022166,0.00274608810670298
0.0207855253951892,0.0335304205616077,0.0166324714454393,0.0026270695796902
0.0302866102459032,0.0355335679537407,0.0154711559709479,0.0042922614925989
0.03508340122387,0.0439089444860635,0.0219551443018064,0.0037656894917913
0.0266256091520477,0.0348693201308963,0.0173169337804808,0.00277080679960683
0.0314847765169681,0.0402068582283026,0.0111873123776869,0.00184297279771192
0.0453928396941397,0.0341471456206358,0.0186779712970823,0.00304035667518241
0.0272808831141074,0.0328761775159596,0.0178201485845013,0.00241739534820415
0.025586278177564,0.0318534185721747,0.0181018382885064,0.00333219080999311
0.0306796170274021,0.0317995386096413,0.0164232788341597,0.00311823302497059
0.0329292522432541,0.0422163918216277,0.0193097910213062,0.00266086581526033
0.0304383748458239,0.0321816120699865,0.0166877815563485,0.00246350855660902
0.036696112716165,0.0324166633865467,0.0179902480888065,0.00270402686960966
0.039162851739136,0.0407806654347663,0.0183182965756842,0.00318537337796265
0.0317539374889125,0.0414764215029585,0.0132014842898892,0.00288938766071617
0.0309710491834816,0.0424343309011419,0.0216096918190786,0.00310358156459447
0.0287426006741495,0.0355361291985083,0.0168454635422511,0.00397554146968993
0.029623525436905,0.037857845901074,0.0176026152090744,0.00279827149830206
0.0256091701263953,0.0292660276992424,0.015887965284683,0.00211777946694187
0.028893570844335,0.0282496724789848,0.0178856778528689,0.00329636761807381
0.0274043543714655,0.0365249015875022,0.0201180513626541,0.00180883594639192
0.032409634722852,0.0369828618685319,0.0167904743807781,0.00254600802124338
0.0281604348459118,0.0469956848223138,0.0206452284648938,0.00235455217529353
0.0331828647444063,0.0311186679522892,0.0166587931148309,0.00295242730758272
0.0349313148875194,0.0305074270909009,0.016293208066737,0.00319492263460778
0.0364645679637142,0.0376615766840595,0.0161494126814977,0.00357404376921369
0.0382401014656154,0.0200206652856334,0.0104643010287873,0.00698924569812207
0.0309225250740594,0.0214603528736108,0.00983047233731297,0.00711481848976121
0.0305244114488115,0.0246368195360033,0.0104157101536886,0.00793074604451833
0.0331307803178295,0.0228381254535415,0.00963618872469713,0.00614980471555463
0.0430880458361131,0.0244677857038267,0.0102319753562378,0.00667529443773383
0.0307836032458266,0.0299370757506445,0.00944083306343872,0.00611820422209929
0.0319276925859724,0.0243784240223421,0.0123044830558479,0.00756110152184186
0.036367681485731,0.0312609902099216,0.00870007591098955,0.00732049601692923
0.0284431390880013,0.0280570858375228,0.0109090428432165,0.00714296662671838
0.0328624119815785,0.0222140518890626,0.0115459912652581,0.0079249075368654
0.0397259915460639,0.0282634145981022,0.0109661466411255,0.00595136865334318
0.0299071211956539,0.025768940808308,0.0116320723757044,0.00854593971534294
0.0415833055145839,0.0244389024043233,0.00991126585795219,0.00735059307918487
0.0286055215315572,0.015034266864244,0.0106961999407942,0.00779666396942372
0.0313592693685354,0.0237203533771162,0.0122742235348534,0.00656489653053626
0.0360042155549382,0.0237167441311492,0.0126596252824738,0.00624774998846567
0.0362443513262985,0.0207595760821189,0.0108941443454513,0.00688079324052938
0.0226736021962976,0.0165562219531973,0.0118120455569001,0.00669083497203406
0.034491315449579,0.025438622149863,0.0123051828068251,0.00737282578985217
0.0327480162001488,0.0195157383904,0.00772003472066114,0.00572257626765975
0.0364562020781197,0.0264503059030753,0.0108680711500843,0.00606319353671499
0.0367079454345362,0.0254912940607021,0.0102357275974402,0.0057968681800277
0.029344200210189,0.0287704449549315,0.00868905738468609,0.00669292474369841
0.0286349650724901,0.0238265442222142,0.0114942814982148,0.00648909326053173
0.0319738902751787,0.02221714976402,0.01447009504256,0.00539214900028006
0.0300297861834955,0.0228677690976673,0.0128370958681585,0.00765092900130537
0.0301262303339592,0.026890858484175,0.0105400018964948,0.00552820193763941
0.0376175265143661,0.0267113789894835,0.0150200174501561,0.00628096460417645
0.0279904890465339,0.0224429375803011,0.0109092756795404,0.00650116929770631
0.0373163580263754,0.0248998142618941,0.0105733286200694,0.00900042584918157
0.0328506649778638,0.0238352547925683,0.0111771745543631,0.0040659665346257
0.0422207011337301,0.0246922758260382,0.0103903445624401,0.0078555352053458
0.0290960391449991,0.0171583859320013,0.00992061933302599,0.00557804405046984
0.0349076149307867,0.0243494132890708,0.0138040269345749,0.00426548623160512
0.0343974215541269,0.020014865423314,0.0106543509870911,0.00395277907131594
0.0391376916299228,0.0191231000438974,0.0122553311648815,0.00840591507331585
0.0257244050266093,0.0248347603035056,0.0112500836445241,0.00645490867873633
0.0426155644701748,0.0197297168318728,0.01158904972931,0.00816603552558048
0.0443600410998966,0.0223552576582506,0.00852794211553197,0.00614852821682348
0.0347899281093616,0.0213521898996852,0.0120754046497773,0.00497700977692751
0.0294662500236143,0.0189374219951905,0.00941586949661236,0.0066129203313322
0.0498638247766657,0.0248765249224844,0.0119529367385619,0.00580504528887685
0.0313597665469655,0.0243959079839446,0.0144869124497561,0.00562387734441686
0.039484457341019,0.023078457048607,0.0129744464866003,0.00640277997814683
0.0379926180107242,0.0219439617248211,0.00979617939123596,0.00572548357114126
0.0297472259909054,0.0286392268841925,0.0113167330242946,0.0072045175827126
0.0337745095372912,0.0192743158752353,0.0100104071074067,0.0053281297286233
0.0308343054986193,0.0251969353501559,0.00900085817348324,0.00537484163205345
0.0358616131022851,0.0213476032304402,0.0107349685542254,0.00756209947464578
0.0312465361480745,0.0163942969608356,0.0119240260830935,0.00520768102909632
0.0461658440029369,0.0233838183852223,0.00965849504477318,0.00697417612828502
0.02444927984831,0.0224726958223605,0.0115415509047697,0.00696592999255611
0.0340354243690955,0.0209724082108002,0.00849285120963087,0.00791608824696693
0.0322940294638702,0.0254344590609644,0.0083375528812626,0.00417617846890649
0.0329760492955997,0.0260265346252381,0.0116874583787169,0.0063193982204183
0.0409193115827171,0.02289033267707,0.0117053979181244,0.00716284221087952
0.0263057492456379,0.0229674689879775,0.0113172365695337,0.00743026477244904
0.0364749435417423,0.0265663025245143,0.0110051439096849,0.00727618183734127
0.0416847991270204,0.0229573628139114,0.0121757212466793,0.0060451322479438
0.0187128669371307,0.0190799495348964,0.00916511702053306,0.00469381183605553
0.0143838992472316,0.0331700701387092,0.00958148634559708,0.00260321987501758
0.0165207077868398,0.028535155303854,0.0112061435092913,0.0030701453097361
0.0143685893268818,0.035764320107466,0.00880271484923573,0.00292588258264207
0.0123507024841003,0.0260156182565643,0.0102977372549704,0.00269216419430265
0.00986289629590228,0.0261673685881409,0.00925665057385903,0.00237601829082956
0.0129416799916757,0.0294047333811334,0.00960727530052669,0.00294973066154092
0.0127398547244841,0.0358105307845969,0.0089506608540068,0.00226679324527686
0.011063675956126,0.024301808391812,0.00907889547470787,0.00275220763551597
0.0103112731944418,0.022828812444866,0.00900375729363964,0.00267473630023442
0.0149644990203066,0.0252439447936648,0.0109298178787268,0.00227739173913964
0.014075146105019,0.0262882058114234,0.00782424254685837,0.00218796708587264
0.0141114744620975,0.030758808499177,0.00735171739763292,0.00214876851698821
0.0110309555200913,0.0322606005119081,0.0100140081254936,0.0029500086177406
0.0121771783416618,0.0291749186407091,0.0103624520232373,0.00240639234069367
0.0109338791273035,0.0274151888129643,0.0105882733117839,0.00248143845264659
0.0117055649861009,0.0252277926489778,0.0113095506302701,0.00237523210755842
0.0116150030351896,0.0386553692294868,0.010328416484836,0.00258476398425011
0.0114796543795214,0.0269232236796126,0.00855323447424146,0.00259316507012177
0.0129795889130187,0.0354004108633753,0.0104398356536685,0.00274215341505143
0.0118834306153103,0.0260974222967831,0.0128130685761612,0.00325237470464152
0.0115492847764629,0.0322704004932328,0.00806387459171228,0.00261549912460152
0.0108717410530646,0.0287823402346125,0.0109015973815514,0.00293077061828457
0.0117130076543459,0.0286695928410288,0.00877009610319309,0.00290482167596267
0.0161923176804909,0.0394507917381869,0.00874610521255541,0.00312731306050149
0.0141552047486563,0.0308617511911646,0.00761997134388488,0.00294079456110232
0.0118279011142098,0.0286124302014524,0.0101876100198158,0.00267248229507626
0.0117346825920727,0.028660443045314,0.00821932482241199,0.00205537767702906
0.0115889344306753,0.0336993597161974,0.00882347507687044,0.0027770737547788
0.0126580227552299,0.0334959623789384,0.010702682714765,0.00227659190475192
0.016214377874797,0.0310624300448354,0.0124524100893645,0.00272463118282052
0.013007962965233,0.0282514577088018,0.0101659832583389,0.0026640659027276
0.0154638206970771,0.0259191289776357,0.0141973234393583,0.00241274282048834
0.0129789197690616,0.0336750323622473,0.00945878862672963,0.00308219377260586
0.0128517830248529,0.0307952178971543,0.0111357584489442,0.00250452774628143
0.0131588968869675,0.0282296113289369,0.00921666907360344,0.00237236856048451
0.015192443395972,0.039687242966568,0.0169054217520826,0.00358827835738979
0.0120969609620992,0.0264705195428613,0.009294996135811,0.00243207692249014
0.00986130227914475,0.0258811299524798,0.00888870970942044,0.00303606280930767
0.0131624292330014,0.0307737990883632,0.0106896403014022,0.00244716285018884
0.013263005702104,0.0300355986865962,0.0125391655617224,0.00306922031896566
0.0135183271480647,0.038422635118416,0.0122246283743353,0.00458850754068415
0.0139712887536583,0.0385776422342613,0.0111359594201793,0.00203326377734665
0.0141272399333039,0.0313182968329443,0.0145368823142176,0.00249041501102406
0.0162833127039264,0.0307057816321723,0.00993974361907402,0.00314309345276202
0.0163780883364977,0.0366364425237179,0.010563009000974,0.00195237006203942
0.0101961584747968,0.0288813434053422,0.00821827516217381,0.0025517495572952
0.0151467642816329,0.0278863892548365,0.0126475510612065,0.00348075520642082
0.0134740751966339,0.025191479310254,0.0102037388057655,0.00215991327683275
0.013871844688901,0.0280093290099541,0.0104504296232547,0.00258389134261554
0.0112492829762349,0.0270479879348962,0.009661967763332,0.00274814089552421
0.0126007767641544,0.0325906766687726,0.00806258155744561,0.00285069344677825
0.0117163248854374,0.0224106251969601,0.00983204371742441,0.00276107375288163
0.012538534862595,0.0276844815062301,0.0102775468944502,0.0022237620234727
0.011252640245811,0.0296735115690367,0.0103051338317165,0.00246581321485363
0.0131608171342752,0.0277427126639826,0.0105089886280101,0.00251223198314507
0.0135997261482485,0.033156415838206,0.00770856497518195,0.00266304970227649
0.0142760142867453,0.0266829846812815,0.00901378431972361,0.00219599386351152
0.0120976638119147,0.0249315377444211,0.00978194439488815,0.00229504518517696
0.0129652519909525,0.035242631018794,0.00997859086529898,0.00233195446206449
0.0100302631005994,0.0318236291646816,0.00956321700554543,0.00264947231142831
0.0252631060267103,0.0210817492544784,0.010754009908933,0.00241721548389774
0.0266084377923341,0.0185674609090765,0.0104686616864344,0.00180952918118982
0.0216746398907416,0.0232072483297506,0.00998160049679174,0.00242419785541678
0.0221776874514643,0.0214685359845159,0.011740782900378,0.00304884694715411
0.017945871449218,0.0214776271655832,0.0124440942669789,0.0027100671966938
0.0249251725162348,0.02029198708097,0.00898717694682182,0.00242809217095844
0.0189069869914303,0.0204468104747064,0.0103954014110232,0.00258365355486561
0.0196107465667195,0.0252103490204245,0.0108288785953834,0.00243957150997036
0.0247168889103115,0.0173476108393572,0.0116192132278768,0.00268766900186734
0.0195156607677332,0.0214836866989724,0.011354412345066,0.00266955647413802
0.0196895206422273,0.0194052548042751,0.00978156761624587,0.0025013371752144
0.019861454909206,0.021038573036004,0.00843602814106906,0.00284007428103398
0.0249481075889535,0.0217520480104692,0.012231535198846,0.00225850556723115
0.0209270346162588,0.0240748263849207,0.0103329705539012,0.00276816494570263
0.0225497854257956,0.0214201353740287,0.0111774314621243,0.00286928112519152
0.0168988604513311,0.0203367637233714,0.00894460840102263,0.00267339509903205
0.0203225741512568,0.0193575599250916,0.0103482301612564,0.00242501565338444
0.0163173546327903,0.0232790217056332,0.0121529097855781,0.0024082418401071
0.0217136028439784,0.0237186243455518,0.0103309604701962,0.00239161273162052
0.0186836690970656,0.0225078688042316,0.011920350460514,0.00276231882203468
0.0216200372625751,0.0211105089031403,0.00996963634494187,0.00188389031300562
0.0197031824266559,0.0235152145474639,0.00890448301954077,0.00181422787921646
0.0192662848060036,0.0223207790767749,0.0105551333390728,0.00225699634378424
0.0149170183342751,0.0238181099238657,0.0114843998766623,0.00210615049419331
0.0189910104565128,0.0304679242176062,0.0126985522324889,0.00245170339806428
0.025932379591762,0.023869153034384,0.00994269596157794,0.00267031979138292
0.016718026571058,0.0214391444529982,0.0096135184974358,0.00218259704454407
0.0207728212131958,0.0252645429147213,0.0134236330637446,0.00251226811967778
0.0239220901213246,0.0201908770158301,0.0108060864995479,0.00273385503853802
0.0199763574222437,0.0206885998814516,0.0091841086498034,0.00252982924467122
0.0196531926033643,0.0192017347461827,0.0105983458770898,0.00245675134618409
0.0222418194690376,0.0247934702933129,0.011326604447756,0.00230656203077701
0.0163887938042143,0.0203304893385123,0.0106602852880916,0.00219556037915114
0.0245879410802644,0.0252453567160773,0.010647957375246,0.00223184063860866
0.015013475504101,0.0206315344882806,0.0114302326967003,0.00248408788832616
0.0247929629462199,0.034817460923916,0.0109549467135365,0.00246949757608845
0.0278576414218113,0.0229734627122495,0.0136262671981965,0.00278898825855301
0.0210501777245851,0.0162996880823505,0.0105732052475629,0.00267599497650164
0.0170626956984379,0.021140750675756,0.0100421342307688,0.00215578047071547
0.0199672405524314,0.0260796437469593,0.0105437028353657,0.00215233126214153
0.019857269917901,0.0211381981296608,0.010285361796187,0.00235679881051192
0.0176611736598225,0.0249500054845535,0.010965785477,0.00247226309390838
0.022825362628303,0.0328021978289962,0.0146605815397123,0.00262923096151526
0.0200436546760524,0.0192659199510417,0.0103113806621857,0.00235336457463797
0.020917653594645,0.0226996373356854,0.0103591791886723,0.00260425039852648
0.0262780735143497,0.022834613316205,0.0122047432285284,0.00274518774659913
0.0252599468588451,0.0199890494605355,0.0100472603573628,0.00259742659801927
0.0213880343120613,0.0220353509613722,0.0083495231386609,0.0019304558766042
0.0196766829333135,0.021630352756123,0.00993620978299208,0.00220022525066137
0.0226045587701807,0.023413062622197,0.0103964139366462,0.00198880430543781
0.023037351558109,0.0249979480126475,0.0100915350965082,0.00246366530366913
0.0216984677572588,0.0239479050121711,0.0114677747979028,0.00263899957003716
0.019625727032196,0.0197013567948977,0.00938788124902822,0.00182117780209779
0.0243699568788589,0.0220023641465525,0.0120293746289896,0.002242959588264
0.0191901650087488,0.0249330698461518,0.0106566068138215,0.00185398321665226
0.0225717420256817,0.0236844590788483,0.0103182594501237,0.00212884756255275
0.0198498742540713,0.0297508059190707,0.0107901657824793,0.002697860990688
0.0231837261718048,0.0208449036098163,0.00829464578892543,0.00205059431848829
0.0158195187046539,0.0191619029892067,0.0106830141716335,0.00228051619448465
0.0196990301602148,0.0222369739636478,0.0101390766259392,0.00255370567248971
0.0138798237636129,0.0155793466620783,0.010156276688114,0.00206054843720784
0.0117855817043306,0.0152769645878842,0.012512702433929,0.00207318820811544
0.0150781734552882,0.0186482925893828,0.0102674769777148,0.00190745261726456
0.0155102463925578,0.0162729901823028,0.0114608903297576,0.00190569059407653
0.0136594865408611,0.0184914116855647,0.0111682225765518,0.00231393115915534
0.0120934064590691,0.01831199076891,0.0140597173415504,0.00220518039343574
0.0119488723371268,0.017555708970656,0.00907733165236599,0.00223292466202246
0.0109485848056428,0.021006172120351,0.0106194806932071,0.00196590870673006
0.0100487726009217,0.0188825884066803,0.00970597106701128,0.00200298002681531
0.00994546181122478,0.0146873327446935,0.00776110855627969,0.00209977705214064
0.0125689347304464,0.0173382913926495,0.00763968145013848,0.00203507103064173
0.0136637590567491,0.0179924888593443,0.0103539866370103,0.00198892637285963
0.0100502268131471,0.0171536365789321,0.00879598005384158,0.00202950437509091
0.0145113579039326,0.0155870694553327,0.00740755389010881,0.00178946873673097
0.0116992793480666,0.0166199461427099,0.00964288670214216,0.00195083653026112
0.0125365215824126,0.016070827191861,0.00785281335028564,0.00239663890484923
0.0134917886633411,0.0178912049948857,0.00926679383036733,0.00203617579583165
0.00958108955171943,0.0140962089888288,0.00964142932852777,0.00168058184748197
0.0108098492056369,0.0168139016712777,0.00996538919871708,0.00245949571830326
0.0104528487986221,0.0162588084256615,0.00967005540465649,0.00227835463035247
0.00995660881128488,0.0135648842624381,0.00745885015147792,0.00232558105762693
0.0146089002115334,0.0160141233775352,0.00970326672614821,0.00185393640993344
0.00996448096317525,0.0152078438495981,0.00945660007733118,0.00194262639335646
0.014085078673886,0.0160734633561349,0.00935273801954561,0.00210226089975075
0.0139592236803962,0.0148236755130075,0.00684591010037875,0.00180888744188541
0.0146032604184845,0.0155187951335931,0.0103180821976719,0.00214046412657853
0.0148158809801457,0.0144173744597347,0.0119215115961483,0.00233286713940707
0.0111011274392096,0.0142008396503594,0.00751399705000751,0.00196453867330695
0.00984533475609618,0.0147949033263408,0.00841800950814124,0.00155873764876027
0.0136042595960421,0.0129385230989847,0.00831034252061408,0.00183229450557704
0.0121031603214829,0.017162559550868,0.00858192765131925,0.00216106758341444
0.0119300442282035,0.0147290703841533,0.00631276160789752,0.00204549467752984
0.00984964803073068,0.0141306681312819,0.00774619359146763,0.00196080332470051
0.0118221702069846,0.0156597627139067,0.0074344176872671,0.00181374007116797
0.0129209747524643,0.0145030560793539,0.0092272651022833,0.00222738197920437
0.0131214394387008,0.0146013020219845,0.00639204053198725,0.00172895847469876
0.010562287435417,0.0159905929007712,0.0118649273062286,0.00210630121725347
0.0117262633971881,0.0168397527589238,0.00828180714166612,0.00207109808799373
0.0101629922438186,0.0173779105398136,0.0115031625518736,0.00244674665520344
0.0133402727103019,0.0141721319754286,0.0085113157824087,0.00217408399851183
0.0105152890924958,0.0163951546909673,0.0107874606622705,0.00221015384707345
0.0132193644971033,0.0123196955898632,0.00878379611555188,0.00224584731514553
0.00746558541999295,0.0125719049358427,0.00679626253131721,0.00200628149988674
0.0115805443384965,0.0124934671563565,0.00768872773829419,0.00192179122631525
0.0109737489834508,0.0129833594162717,0.00810456181398798,0.00191589661353132
0.0143048442040841,0.0181167524658126,0.00813927066717201,0.00206541338447212
0.00970531373103253,0.0159487250335277,0.0079661790091435,0.00209866234522523
0.0128240055689733,0.0172615185981498,0.00848131720834604,0.0019849801622818
0.0107392224658664,0.0138802255978097,0.00824934036154232,0.00175062115454693
0.0116011321834959,0.021100364711437,0.00863920640628327,0.00209437588797422
0.0123542224291446,0.0182828002803147,0.00907666570130887,0.00208598898951375
0.0131794377413551,0.0186837171984624,0.00819669629568554,0.00205131823542152
0.0125331363073786,0.0193766397786508,0.0116342264963251,0.00233700259145704
0.0122959189234736,0.0147674922629122,0.0116760058168795,0.00272422767024528
0.0135274990247271,0.0171329142996811,0.00978708943525827,0.00212964418994051
0.012444557129675,0.0161652153423894,0.00903161351204788,0.00230896096989869
0.0136095859571702,0.0179783000731556,0.00752081348449939,0.00183412500815271
0.012458946584223,0.0187883658229383,0.0079757526831755,0.00198688408905771
0.0148015040979771,0.0147184714477666,0.0110987654086293,0.00221296522319287
0.0117331075902637,0.0176966285380255,0.0098528867023444,0.00205834954114446
0.0350920106602359,0.0399910314800474,0.0151995789138978,0.0019098670231915
0.0382072090599991,0.0415406843614437,0.0136564710064263,0.00192001882840049
0.033642267986027,0.0359300356473181,0.013666153105288,0.00182790250566955
0.0277337078141122,0.0400318232033742,0.0128812025059209,0.00185954234505824
0.0393356756907743,0.0366944437270623,0.0137025493327939,0.0015719748686519
0.0280683985045562,0.0473632908043845,0.0129000076333934,0.00169553035016337
0.0312149971722035,0.035339330317207,0.0185608196465907,0.00197744599682457
0.0366525988928787,0.0371282671078022,0.0164439787534145,0.00180042235696379
0.032385517404349,0.0420622313224995,0.0195830174116862,0.0022699306869624
0.0359136433896018,0.0397093128009098,0.0189628140380852,0.0017616661485917
0.0318656462870854,0.0425907857408224,0.0111428144794359,0.00147330726520403
0.026910763123723,0.0459533316062193,0.0145297082423363,0.00152034400699619
0.0369657009610573,0.0452429277988346,0.0174464894505389,0.00162995294456837
0.0309666713722305,0.0419921335875006,0.0140775998326873,0.00158978641842114
0.0357089494278512,0.0425684046153105,0.0368600121134286,0.00188698545415097
0.0342075482799176,0.0452323574621524,0.0208725298495325,0.00160544299026773
0.0317202270469977,0.0392993251742084,0.0189519759093068,0.00157022749528232
0.0300652008831487,0.0445912471610488,0.0166143865560016,0.00202746762507215
0.0298256956062572,0.0342628832087649,0.0211247227366124,0.00201263653617543
0.0387098425175254,0.0369059270791823,0.0103289538146298,0.00174291251915501
0.0327586801202946,0.0361159541386897,0.016191813837057,0.00159500013110743
0.0276800487909864,0.0548199773840974,0.0180824645907339,0.00181860165479666
0.0331418784267986,0.034216303706274,0.0197365403532873,0.00187556875733849
0.0369067401113058,0.0430858674114683,0.017202832003462,0.00161529513304815
0.0284263992159374,0.0417722056125624,0.0170544865681189,0.00174851001222735
0.0361815477182687,0.0433745731027777,0.016801123617139,0.00153191922864437
0.0240682416268917,0.0330109693621921,0.0175996893124301,0.00168598080661359
0.030070515208442,0.0407236726146594,0.0177702923653225,0.00175782611669134
0.0314155951311602,0.0527791584896036,0.0192176335927564,0.00166193317008199
0.0321210763632247,0.0372126624659108,0.0143019189337917,0.00177200902765444
0.0243223255040886,0.0317921117679973,0.0119318875022461,0.00130687896808751
0.0367931436858905,0.0455626192981915,0.0221162731848179,0.00215370840027886
0.0311793682294201,0.0341276372405279,0.0130436264980791,0.00178122100429351
0.0245105833649518,0.0313696035724521,0.010875236283276,0.00175573724130577
0.0338860469720561,0.0403833742663601,0.0217488438860036,0.00172467605291313
0.038270777637985,0.0456195589234729,0.0174498760438751,0.00169508835400781
0.0354950664936629,0.0420857762120929,0.0163218797151717,0.00173951188983404
0.0241003595232124,0.0397362080973511,0.0107450349385785,0.00136079896155863
0.0303122845584601,0.0356084290969463,0.0129681170454322,0.00162407270988312
0.035188702717347,0.0387822851605324,0.010730544976078,0.00156881083863391
0.0260685906339401,0.0453575667080752,0.0125636546584328,0.00156895906645616
0.0313725799053918,0.0327909371263321,0.0200328122731716,0.00188079296777085
0.0297492948665144,0.0371974899180271,0.0153932428877783,0.00180168317174067
0.0312759454585424,0.0385837713846574,0.0154503182786737,0.00120351869728825
0.0331667590047548,0.0383949427986116,0.0157971035595433,0.00184592868503937
0.0308689953442197,0.040100595729833,0.0203780171058911,0.00184364027900737
0.0438982870224246,0.0545509609771366,0.019592069342962,0.00192261458006049
0.0487186695828363,0.0500728276079232,0.0148155297406421,0.00191675471489928
0.0305530404827493,0.0424945036974621,0.0133401226860836,0.00180649870954397
0.0305607383666708,0.0489490532199564,0.0123130456104016,0.00195542744018669
0.0305798740037888,0.0389813663907331,0.0102733233596232,0.00177495689834513
0.0340341694198197,0.0505504637279768,0.0271620995146696,0.00218492158217564
0.0325569869726183,0.0464415195717743,0.0218555728626054,0.00196509318225474
0.0226732235635982,0.0393495861173323,0.0258325113481015,0.00190576113850147
0.0311381733446378,0.0478724778502443,0.0171500058927916,0.00203026551961192
0.0312193079667106,0.0490107131509941,0.0143934850128884,0.00157174828806383
0.0302944118791271,0.0434172522520899,0.0142677954197095,0.00200158315911166
0.0352372867143025,0.0430517677478161,0.0163166650676945,0.00178177786696261
0.0431585265674063,0.0655828287995642,0.0193809477104014,0.0022200974198945
0.0320095288265288,0.0440754021080294,0.0157689902449364,0.00211141723515409
0.0140512064884231,0.0230159350475366,0.00709895369258991,0.00259402375460006
0.0166573403652385,0.0201746493866208,0.00722201634074264,0.00225629075289884
0.016584408801605,0.0181933442485447,0.00773025688302546,0.00317046970312137
0.0170262653184564,0.0169845042673681,0.00706018879021887,0.00230988618542601
0.0155902613893101,0.0183936759618386,0.00779235878433385,0.00250849742269527
0.0199864129018603,0.0162572932148853,0.00916105551232837,0.0025792016019927
0.0162657714061216,0.021673172312368,0.0063873059462516,0.00239804037839594
0.01528830903706,0.0243753553050048,0.00800406655480627,0.00221747991265384
0.0135282513497456,0.0195395548372991,0.00838792764308215,0.00237264551427342
0.0153279191901781,0.0189213938020348,0.00691178952105944,0.00237812295093658
0.0167819876987235,0.0221413064031268,0.00804639520195859,0.00252562471721002
0.0201192555906688,0.0189494193993971,0.00752432356615748,0.00311187803732581
0.0230912979259804,0.0182191350229638,0.00853189938340239,0.00278685505348186
0.0208956914366801,0.0262263571604752,0.0090665642815184,0.0022815444567644
0.0178842023458001,0.0193564002152665,0.00814710795258023,0.002541141920906
0.0161252751824323,0.0174241720980331,0.00938244827228222,0.00218206096293886
0.015017774730862,0.0252948260776726,0.00807088940252156,0.00250485352295024
0.015657117353715,0.0195007222558224,0.0077509405875333,0.0024025981079144
0.0188698606394556,0.0191259618695946,0.00829843603366997,0.00247348159318584
0.0191227745475714,0.0214133426329541,0.0087757575632249,0.00215981024911732
0.0153046710642714,0.019483714662958,0.00731405406019448,0.00235099198269815
0.0146938592355464,0.0166020963154138,0.00697208523251181,0.00260753167673741
0.0161013482304478,0.0204514252930457,0.00870396590835775,0.0020816208912478
0.0140614496905929,0.016696727221052,0.00688821059289194,0.00176452589475122
0.018699610347082,0.0233399499066868,0.00654068979923822,0.00273729426363187
0.0224516359605315,0.0256668682528262,0.00782493747846805,0.00267986479691262
0.016915138328611,0.0227073218719099,0.00752810455494358,0.00295551318088305
0.0167814337007622,0.0221946606768755,0.00702345226022742,0.00248093239854064
0.0171301388105116,0.0194832427777265,0.00859204670057051,0.00345714163665321
0.0177851219399906,0.0221478075255839,0.00795588537282231,0.0023981628692768
0.0170707030559908,0.0192363065786629,0.00758240925621766,0.00255739906459878
0.0159400797628167,0.0229033032327001,0.0079380921324461,0.00258665573851077
0.0175565345136379,0.0203839351928145,0.00726128865074541,0.00214931863879215
0.016245826375539,0.0207969346851377,0.00857192775877717,0.0021245757497448
0.0169645121429654,0.0197344175215804,0.00771909477213318,0.00258966919923658
0.0172866218725533,0.0228917190577325,0.00606694059935857,0.00255438937031847
0.0156135487946383,0.0193992190306455,0.00689901712654117,0.0021763072313107
0.0166412167597256,0.0158257393933306,0.00701593339380616,0.00279129817127599
0.0157561529509198,0.0168369173915099,0.00714880930710507,0.00277911342846997
0.0233208589497973,0.0220830508392909,0.00887799030332223,0.00277146109878632
0.021173395075719,0.026682219622767,0.00911329601987699,0.0024192673742037
0.0155066939026272,0.0223106971870291,0.00764031084100088,0.00222123394550287
0.0191763787679038,0.0158938622224259,0.00612462213882907,0.00222757482745176
0.0188483422173126,0.0173754017170346,0.00716069263382493,0.00240083076214311
0.0169382833295442,0.0176337061764673,0.00715277774792198,0.00225028088601666
0.02382267212958,0.0244470066761897,0.00879617395605406,0.00255692560624668
0.0149689143842445,0.0187370017349557,0.00707168116909612,0.00225659078422233
0.0147775824705395,0.0239839575982079,0.00738530999844373,0.0026509551043541
0.0159237190929479,0.0162001121863272,0.00599788799923211,0.00247592239759207
0.0189286772803813,0.0199557240533413,0.00651875756635062,0.00263131374715882
0.0155801910238903,0.0179090480579104,0.00649060486295182,0.00255556920932252
0.0176469835848896,0.0156300131671137,0.00739656609523832,0.00218789219984297
0.0147541749634762,0.0226421067423725,0.00681068652383207,0.0020896524857775
0.0201378461554131,0.0206315460824769,0.0076668181472661,0.00237849052364242
0.0162655123046866,0.019522283035423,0.00756178155881556,0.00192452538234875
0.0204693285858335,0.0265179908205498,0.00905809368079577,0.002261499403038
0.0217998190761502,0.0208633291166791,0.00880134988455327,0.0025487826543012
0.0155836326342334,0.0152611044270298,0.00737824415509004,0.00249583741159117
0.0151121701593864,0.021498279874894,0.00831009832637754,0.00225849136371626
0.0213662069357163,0.0187017204278965,0.00797054185138014,0.00190919302392672
0.023054801454187,0.0445246470152706,0.00951942631409602,0.00298905188175455
0.0168458347920271,0.0391727610319411,0.00940157260616139,0.00220648423305904
0.0216190304157452,0.0281842051167546,0.0132418033292393,0.00265115389503463
0.0176746080058455,0.028435977351196,0.0112872194042154,0.0023953476416085
0.0172508303555818,0.0394176897742271,0.0118618186917309,0.00218278845702029
0.0171058339915128,0.0348306848633537,0.0119192621248205,0.00253544942729013
0.0133049665875673,0.0279539108402912,0.00945527529789721,0.0020270591365666
0.016625278460564,0.0292062632644199,0.00782666649680757,0.00232479084500151
0.0157174837260053,0.0364470453585238,0.0088699633161779,0.00239868598725541
0.016769875790104,0.0337544705363836,0.00994335506959624,0.00187430357061773
0.0154374102317945,0.0212994612021929,0.00874292161280413,0.00174280636562017
0.0199877967986532,0.0260783962318896,0.00814202870605371,0.00242956144621775
0.0168286734846352,0.034716306352086,0.0109902894135247,0.00199052348734767
0.0194433016985199,0.0282810983888344,0.00757547681686765,0.00250376240950127
0.0141363028839907,0.0339163822136622,0.00808033752162764,0.0019202951288365
0.0120515588589557,0.0336104471563635,0.00596237560188579,0.00221648527821927
0.0139029685995705,0.0285668743990273,0.00922969431594158,0.00219093316683606
0.0223267278736534,0.0364117327954268,0.00925347137540003,0.00209304289427209
0.0185518024305402,0.0350302167654008,0.00751233230985187,0.00243557582977107
0.0205269442349795,0.028900206635241,0.00959055576338844,0.00180472115952208
0.0133914379489392,0.0364388557496106,0.00979388025129939,0.00234015519711057
0.0141871641270078,0.0330652731278383,0.00808822598700384,0.00225777515133321
0.019927799172664,0.0343301039720723,0.00854651473596282,0.00187753820344815
0.0210426000531561,0.0340785824801558,0.0075486720957013,0.00181292464903163
0.0133406679224534,0.0329194446148251,0.0080031659921819,0.00201574456006828
0.0157611951943534,0.0275758128720844,0.00839626144425968,0.00215424356007967
0.02290978898272,0.0435627762511991,0.00750746441479508,0.00241537055419059
0.0209335689286689,0.0312300832095175,0.0095633619169275,0.00205117234600201
0.0129332659141277,0.0301357135367624,0.00783620819763133,0.00208810024743758
0.0193251139999879,0.0323526824603134,0.00725133586322858,0.00185666253575144
0.0179597042830739,0.0269034277209621,0.00842953486409453,0.00196454400273511
0.0161572159961765,0.0331945245755017,0.00695696126418716,0.00191258480604702
0.0178663116270069,0.0350303123840802,0.00796507125294791,0.00200565673085165
0.0172575692599443,0.0451529161977746,0.00696644157837204,0.00199521938985415
0.0183125393758468,0.034655815661643,0.00800765162104833,0.00245475417273719
0.0143649407450451,0.0264449772985688,0.00802458484566045,0.00230961544133941
0.016655844352893,0.0417392248098652,0.00753145033543656,0.00253619909979833
0.0170749054402325,0.033558924721861,0.00731226321062676,0.00217320200187676
0.0168296565247717,0.0341467799769746,0.00922297353983297,0.00254655565698218
0.018680827980316,0.0347147816846062,0.00791676356357804,0.0022404784218277
0.0200766052819647,0.0290566229671379,0.00746488493365622,0.00162382113623695
0.0166408290613889,0.0281269232286788,0.00750786146457379,0.00239150704299985
0.0148697350762255,0.0316301798163387,0.00637431339472312,0.00159093892131664
0.0214589067337371,0.0242234167594269,0.00743976648340046,0.00193660824145396
0.018358053822471,0.0379271483737114,0.0071338726440686,0.00213362753413562
0.0208111516428006,0.0252403470303267,0.00718484538677822,0.00207703724358603
0.0174966991789663,0.0398366617075043,0.00770693649829318,0.0017660795632089
0.018650861544728,0.0343099364330844,0.00535485558458326,0.00189885028515757
0.0188088635125321,0.0262255118704015,0.00695354456799627,0.00225838992300606
0.0141805821322089,0.0313177536630464,0.00656880612743412,0.00206412813009012
0.0139203435492328,0.034765312252307,0.00554731365831717,0.00213102107655834
0.016002239735216,0.044945478462587,0.00843995090304629,0.00202944663470324
0.0153388147311248,0.0294206482506214,0.00688116577467627,0.00212183864596124
0.0174942167487297,0.0276594028529724,0.00624981174662404,0.00178258797302518
0.0183355307854092,0.0287921774668027,0.00832257038977129,0.00134584983641006
0.0198874874166619,0.0307424410835162,0.00828353619593992,0.00208675339203569
0.0213961220213687,0.0245429638252867,0.00866866844829783,0.00166382637480259
0.0186715124304741,0.0330416281415508,0.00715116420935974,0.00167912432889533
0.0189591279072759,0.0316961971880149,0.00743276676436573,0.00230554765669309
0.0206184401991262,0.0278906296330172,0.00598468146496647,0.00198548786604932
0.0527510200370695,0.0271309837537026,0.0216109657747634,0.00400741213556813
0.0294799102732422,0.0387364098981252,0.0243621335044664,0.00393462814581915
0.0231176236718911,0.02821929074247,0.0162355217668055,0.00331210273290712
0.0313567555838181,0.0371340517699909,0.0179748395298983,0.00580940458305579
0.027212024272532,0.0291727377763595,0.0267733054064773,0.00415049785195896
0.0252320266595172,0.0298878463705218,0.0209747408937499,0.00393345775351683
0.0217095797023637,0.0299005831449037,0.0172117821721319,0.00776628464462554
0.0325076505014311,0.0274876242164649,0.0192125012952309,0.00313132171333643
0.0287868050269574,0.0373291690014772,0.0196113478670603,0.00201171201399018
0.0384911254154243,0.029918304144196,0.021809348087857,0.00280461374970199
0.0221746892340494,0.0210616756975516,0.0168263868031543,0.00246545810481336
0.0261401284777277,0.0427215656992981,0.0288674802575365,0.00241261901137957
0.0272810808688774,0.0277831743139395,0.0238749563247033,0.00294512397002028
0.0352007299825467,0.0268786361537935,0.0322474195402116,0.00322842451264266
0.0318268446424817,0.0348416840174506,0.0231223792372112,0.00258212129421049
0.0276053384573053,0.027950315748598,0.0317588919931783,0.00305103628378823
0.024303850348537,0.0164591323424665,0.0221833620343456,0.00311087402678509
0.0362405304273746,0.0325023576849784,0.0296833143039949,0.00245487878176581
0.0379700269787363,0.0442348932363779,0.020182482702223,0.00243536414638729
0.0207728301273296,0.0151060638704066,0.0168452426657796,0.00211664346834057
0.0350690210787294,0.0301006376131016,0.021999755044036,0.00253070665658277
0.0312190892588625,0.0300897746803609,0.023381098452853,0.00168381715259455
0.0242470262858252,0.023565891902738,0.019237896910611,0.00238459797457732
0.0365500033880137,0.0314609927683198,0.0238384287465869,0.00210710881035903
0.0263741360923741,0.0237907784657626,0.0176670642324225,0.00211860375155753
0.0327096055630894,0.0289979295218595,0.0181307604322167,0.0018232623232641
0.0328170037749137,0.0275807444660809,0.0193620955558248,0.00287134196770548
0.0367472299154044,0.0365885468301901,0.0201576473372105,0.00254525288319279
0.0247275917862082,0.031036203627231,0.0265142213098657,0.00201425862737918
0.0225638663900343,0.0210457980672564,0.021917422838944,0.00222390409202194
0.0204467054253547,0.0301256090536254,0.021282695023648,0.0027162225335778
0.0232804630657439,0.0328241004625381,0.0166566781419957,0.00232640385729532
0.0248662883451483,0.0288609060314699,0.0242753299164001,0.00254867255894313
0.0368837984050453,0.0295373279422873,0.0213970291184158,0.00219959553747434
0.0334543059305614,0.0243112304048207,0.0279507808834145,0.00197311229003408
0.034570183871714,0.0301521873801732,0.0223869368662237,0.00217062350572982
0.0329973713528538,0.0286902896482936,0.0257571122763941,0.00181392856500568
0.0241633218431299,0.0208992749115363,0.0191206066655235,0.00535236474374212
0.0311034373289098,0.0277235175987298,0.0264950876213099,0.00236373615643074
0.0295531064937208,0.0300753770684152,0.0287757184116412,0.00201260474005046
0.031101135978019,0.0323261476618989,0.0164698873409369,0.00217268617193275
0.0288181968335506,0.0262407446641323,0.0198219954581388,0.00237801265725087
0.0320275196431237,0.0334498957832965,0.0218832491018413,0.00233108414935105
0.0277874762393906,0.0195553510841709,0.0222560596497391,0.00245326683772247
0.0287838758636484,0.0219297324666682,0.0127710430643483,0.00203174596143933
0.0262668650721301,0.0276309640567545,0.0177448994493635,0.00192936978798534
0.0278503725110001,0.0268854962393849,0.0159882307011793,0.00207987406567019
0.0276295690028986,0.0317358610689452,0.0252835132539347,0.00284235972031719
0.0341954578316737,0.0253746460876429,0.0205901291044078,0.00220785602386529
0.0291488274749976,0.024911129294222,0.0170057733903661,0.00180375172657439
0.0283810769656563,0.0316672028036651,0.0187566620384845,0.00218615011290294
0.0288866260808811,0.0291938916527994,0.0208189993216332,0.00248838978604159
0.0233121798733409,0.0227768655344485,0.0212089410243891,0.00211806350027469
0.0229543468646096,0.0301125862479579,0.0247811997623929,0.00194920013406168
0.036923126678558,0.027370957463918,0.0261181569201726,0.00261034088051473
0.0285958431464658,0.020074943985187,0.0133444486662398,0.00258251442256302
0.0223840719271631,0.0359303669048662,0.0204415966593223,0.00197474198822966
0.0317157825230346,0.0263724499872551,0.0179651541949285,0.00202713905609292
0.0280575298335269,0.0248161490789666,0.0217952999673695,0.00273464879940629
0.03143070085969,0.0232671939913744,0.023891495396315,0.00221346132879758
0.0218124929599602,0.0250189980290677,0.0111510173495814,0.00205261148090368
0.0183017661083999,0.0250098535315832,0.0115274013861403,0.00209566788407081
0.0125851360265475,0.0180208976779246,0.0123918969857883,0.00173168126559417
0.0136490504511702,0.0272481596856286,0.00962508380329515,0.00163239692712724
0.0208627294229182,0.0235971551195052,0.0118354891640542,0.00764358643739802
0.0169005110290244,0.0258480309651986,0.00981014220982264,0.00246235157017919
0.018154184875914,0.020982713516373,0.00960911689278951,0.00206420605923042
0.020487295207348,0.0247673670140885,0.00772667391979198,0.00145311720163752
0.0241371055646109,0.0267417497471748,0.012748518826724,0.00201655599615023
0.015324153064475,0.0202820599410141,0.0140653225136047,0.00176972125654346
0.0202244510946743,0.028873429557959,0.0125519049516856,0.00213080268177713
0.0156873230888885,0.0272823146805699,0.0112200530356196,0.00183356440652645
0.0132731439488248,0.0296668251103737,0.0126485670783852,0.00187964191727584
0.0150442004674204,0.0240019486496228,0.0101885066997136,0.00208275114446907
0.0156945187022724,0.0228217337317997,0.00917165415599866,0.00149527194518327
0.0209167424102904,0.0215027416482111,0.00900723634521292,0.00181963861894547
0.0179067821374723,0.0242648353428432,0.0151893092528749,0.0020463425603797
0.0179152095909546,0.0206796263665169,0.0126948499855121,0.00189124014545621
0.0189687787250179,0.026993554228857,0.00962486595588021,0.00194455942455223
0.0166729067997903,0.0235431497442829,0.0139800112831626,0.00173742817601112
0.0166455298017539,0.0252888095736915,0.0167411979659624,0.00236406766505113
0.019331903727357,0.0241732954468051,0.00854786307821616,0.00219795801021457
0.0147120457496337,0.0249646145596528,0.0133040029205086,0.00173183694360587
0.0129734888264599,0.0228112129473193,0.0115558176205499,0.00185529164627246
0.0171571428806033,0.0249385881597121,0.0137857703017935,0.0021466983856666
0.0225948972275104,0.0209979152492225,0.0113308960932413,0.00205921737451601
0.0173610895278066,0.0265895977233388,0.0182184348425173,0.0021714779748556
0.0238610548091833,0.0200044686589598,0.010127019099898,0.00221480148242061
0.0200802818512506,0.0241618039546507,0.00833917634197136,0.00184250614172032
0.0198939400013117,0.0194940578039764,0.0101933049125306,0.00155206607931447
0.0141950722278313,0.0285871555672664,0.0094356595770316,0.00170215359519575
0.0171434218916802,0.0244578724852643,0.0104608101306249,0.00188823914387802
0.0132095756778534,0.0215445673036387,0.0136590534887867,0.00187789260324809
0.016548672954155,0.0143535848125869,0.00811047555175165,0.00185278891801142
0.0149837791376091,0.023104369523046,0.00989557910003166,0.00181600262421777
0.0170806374448659,0.0252616441883544,0.0115994482608224,0.00196759286879092
0.0147600082657454,0.0208583049350706,0.010687489366647,0.00157093191774687
0.0166220914016646,0.0252349866854762,0.0109665337307226,0.00192289143149609
0.0195049000418059,0.0262754462380265,0.0114439899102826,0.00154089725681955
0.0188086758071693,0.0281511139791528,0.0226357063590497,0.00238667334967284
0.0168905347942286,0.0261873139301906,0.01422539995563,0.00183594010162094
0.0167244781041547,0.0282586675961141,0.0151291428695195,0.00183411696255638
0.016349873701649,0.0228742406896582,0.0104053449225042,0.00215539258155369
0.0170435966447798,0.0225537838903409,0.0133183733693575,0.00174102083643002
0.0139277751611591,0.0250706151426227,0.0132347979933725,0.00157821131300636
0.0184003678518198,0.0185448522151028,0.0124478083816879,0.0019830533827373
0.0183682228919357,0.0220549006836642,0.0129709210172789,0.00221672078551165
0.0174941508344346,0.0209795409820404,0.0194518119888444,0.0013676727948308
0.016577986786351,0.0269392947635057,0.0133476296895039,0.00151695951248098
0.0195060181791281,0.0292297990338833,0.0102089626503828,0.00190169091198987
0.015211471570234,0.0242464637071204,0.0102736802507405,0.00153221664619475
0.0183501892025656,0.0273548026879408,0.00829546371622218,0.00180693411231893
0.0240133984631681,0.0279180805336105,0.0113321093112664,0.0017552054962235
0.0204653451705024,0.0247717383177843,0.0142483439774376,0.00138449153772679
0.0157857813145919,0.0266194652556155,0.0132399654923156,0.00168088989169165
0.0188123212735236,0.0204733938754032,0.0146724925297017,0.00191506286611428
0.0204532770041693,0.026953513926849,0.0127545960901671,0.00148652697714373
0.0177501032511642,0.0249071417428435,0.0111895565566079,0.00182828227473151
0.017498632480184,0.0232743020716323,0.0118090977080196,0.00159616949161451
0.0206289679276553,0.0209804529731002,0.0124073244951807,0.00212403110553124
0.0199683312448268,0.0240670005506325,0.0110042116818605,0.00139375681251612
0.0268720099154253,0.0168496995823027,0.0104207008427155,0.00201494031328664
0.0249770319690598,0.023863060504814,0.0125562345111936,0.00210672496438371
0.0244437559857885,0.0232112246678465,0.010222152842708,0.00146454010187857
0.0260226375378252,0.021753270660672,0.0125350866610581,0.00185546753794928
0.0328337928991851,0.0278413803843595,0.0115805235597035,0.00198360917967133
0.0292583924742763,0.0254850556889342,0.0100077559542678,0.00177517909587656
0.0265212633167839,0.0224127566532634,0.0106779284685326,0.00197258011870567
0.037101263831097,0.0255778685702406,0.0136048038664425,0.00250967168591423
0.0234339244100548,0.018825595465438,0.0126338036057928,0.00164518107511589
0.0261686328312217,0.0293168550976255,0.0118992388642635,0.00197622150589132
0.0278907067410821,0.0281465448988472,0.0126715103943329,0.00198650005338618
0.0282573632087443,0.0246880116837095,0.0104020758094667,0.00203541520789283
0.0307198376828544,0.0245133152292456,0.0119676369002826,0.00186281513621679
0.0209387190922687,0.0213000161153789,0.0130689149306442,0.0021779027212733
0.0314834151894469,0.0246504347745416,0.00908453379694417,0.00224344606491033
0.0304188064973527,0.0257675575280414,0.0133967795680839,0.00355018773686936
0.0246722372518167,0.0245094396873004,0.0121314867414514,0.00177676583773518
0.0303811137976822,0.0298113841652546,0.00956489586091661,0.00236271723685533
0.0264762806151995,0.0231184016088996,0.00968646455801862,0.00210763288162003
0.025366459972259,0.0248294645912326,0.0106627323094384,0.00205908774867447
0.0215350579533649,0.0232139541458074,0.0103739102964161,0.0021645435631533
0.0268650123676484,0.0262669322182189,0.0117332107701895,0.00217498868944294
0.0248842605319815,0.028566783996427,0.0109606785451655,0.00184677056088997
0.024559784386213,0.0235637204530612,0.0104799253101181,0.00209637977892151
0.0252794979307033,0.0212216378180963,0.0113566438123538,0.00195427881601851
0.0334282885374744,0.024324184832183,0.0119098320847496,0.00226789655959604
0.0245865896259457,0.0224586999251396,0.0101348113407865,0.00186386844555853
0.022725587633008,0.0251786423061779,0.0121047979297679,0.00164405273069624
0.0250941042434263,0.0202323480849965,0.0105174041729519,0.00171106531417324
0.0236841628942138,0.0239570118885374,0.0134507602509857,0.00170958210058522
0.0278284724334309,0.0262426929385444,0.0105416726755818,0.00218727805086039
0.0242633509751096,0.0237154218204518,0.0139153763909541,0.00142668015516335
0.0288070316352338,0.0296497724183414,0.0118985663414783,0.00163539858366508
0.0280140690954965,0.0283517315651214,0.010005615385925,0.00152881465632492
0.033670193846695,0.0260892005964767,0.0115724395283496,0.00176679530675336
0.0261154688016438,0.0289821247640117,0.0101968233349078,0.00218994812568454
0.0244072897930667,0.028071817857809,0.0104509197099205,0.00212916510112828
0.0324010397359128,0.025099156430039,0.0121616922474114,0.00194643631319084
0.0313961033570899,0.0266464798220344,0.0119001234893197,0.00203165803234282
0.0259776175484056,0.0266631441875894,0.0117213941798469,0.00178940573284988
0.0290975067280324,0.0258854741363595,0.0120050490557362,0.00156592107808066
0.0212355042449594,0.0257449028158922,0.0109581429031477,0.0016808123821341
0.0239206307599708,0.0259101399069634,0.0112555133234266,0.00190347101252981
0.0232211789360926,0.0228241898496173,0.0120268343911904,0.00224597043005993
0.0266372161356024,0.0228299571756003,0.012361066570745,0.00205398351289667
0.0339266007578664,0.0247486059041236,0.0110182933879967,0.00157457743127692
0.0282313522020931,0.0277104294031933,0.0118905956759351,0.00221245135854654
0.0262581362566598,0.030439892517297,0.00904841759518396,0.00169557117488186
0.0227403246123655,0.0238850893755134,0.0122634415598541,0.00200620739804655
0.020854362971672,0.0219356600842361,0.00816698834346883,0.00201676192830384
0.0234429079399578,0.0227989525020223,0.0109031941319587,0.00171738934002962
0.0284025184805841,0.0218729862541674,0.00868648258343517,0.0015642843354607
0.0286704106673898,0.0247959813587149,0.00981221097583377,0.00165091432956405
0.0271115128558565,0.0227453052859084,0.0109721737324215,0.00176014597608534
0.0223903223158158,0.023191502831742,0.00882118688299519,0.00204373121133943
0.029277876051406,0.0237372456334276,0.0104091401762562,0.00181425787081959
0.0268519145040474,0.0212475913085255,0.00957612857717889,0.0021052376205886
0.0236931565095125,0.0252520104404575,0.0115997069010813,0.00201580369617381
0.0258288771540997,0.0175718121162166,0.0104012704749559,0.0018162561857476
0.024097926955676,0.0477786104308646,0.0144341390943009,0.00412954536318566
0.0250251166898507,0.0414897976083444,0.0128059764313781,0.00405252686242499
0.0239170128144951,0.0500458172869885,0.0128691199140388,0.0030952736864482
0.0230200053471184,0.0355256443483568,0.0146170534526993,0.00328357312887493
0.0174986948145584,0.0382325673427093,0.0134061976165688,0.00381801051297262
0.0219625624004088,0.0505997677672671,0.0156043878009008,0.00433115254255611
0.0230395762166951,0.0360914598055917,0.0143467810127232,0.00323963001156265
0.0306016645989933,0.0476218381633276,0.0124909288839375,0.00330709812659515
0.0213073600777142,0.0444085169960425,0.0155816285781098,0.0031671736032064
0.0243721341576134,0.0464167800973818,0.0150346709744216,0.00466031187417169
0.0257295621189505,0.044303096867014,0.016542809334604,0.0028283380954211
0.0275398462873839,0.0451567137738363,0.0147331897562325,0.00325230025179721
0.0201517904511794,0.052375393614348,0.0143310759156412,0.00415877937519627
0.0193349634262086,0.043335338177041,0.0109232657215648,0.00284074343222522
0.0282821348996949,0.0467891907428626,0.0134025328608793,0.00340358378592762
0.0253302173302514,0.0410433399814064,0.0146304791958288,0.00379388598145656
0.0193099297069865,0.0378074821530635,0.0125340172416795,0.0037326032359013
0.0226031522170242,0.0436735937563538,0.0153168742930306,0.00316944168162942
0.0216141757719834,0.0386295064730325,0.0126599824959603,0.00351746297989929
0.0223038067412559,0.0468316845678456,0.0141588104619046,0.00289242200033879
0.0254807964511381,0.0433141290129332,0.0130506977272138,0.00419683162562383
0.0218972458472987,0.0466125660769708,0.0139508911260303,0.00279817752009524
0.0249306127266276,0.0401686102023964,0.0129792601340525,0.00328783765749119
0.0227151509142452,0.0466754575040267,0.0158001638221061,0.00199370920049144
0.0252350557129321,0.0412481000864853,0.0139509008843563,0.00278808795526854
0.0240125523917105,0.045236584882425,0.0130639413198996,0.00266880871940512
0.0213518670284561,0.0393698126307598,0.0140910107249581,0.00365973511438541
0.0225714311029753,0.039812193739671,0.0179925126505185,0.00260218678663697
0.0232971815411194,0.0455738469744838,0.0130858176412793,0.00276731006154856
0.0229928052471567,0.0416087590965096,0.0184904711853871,0.00383797009965554
0.0207777170038601,0.0387900369810221,0.0157305804243679,0.00298293139766558
0.0254870811467485,0.0407353162507873,0.0130192375853609,0.00387944153342557
0.0268366125479212,0.0519813561341616,0.0134311448516824,0.00257409952020942
0.0197873444251976,0.0390696173092634,0.0132456538912897,0.00292620805180086
0.0205714392889465,0.0353437985469315,0.0169015413181526,0.00420877719536354
0.0204952101399668,0.0378718287140059,0.0109366970596055,0.00250886494743088
0.0244239686726992,0.043603486016389,0.0152825943034768,0.00306055065235359
0.0243933300793278,0.0352016176519625,0.012490121863607,0.00231071687102996
0.0271950140168121,0.0436090462194072,0.0119562500972146,0.00264224082438137
0.0255056731515097,0.042055030175058,0.0122136757148362,0.00287237861622806
0.0246016871471941,0.0482023034154291,0.0142586764483874,0.00322621133087125
0.023617500038334,0.0443056399184503,0.0126026596867912,0.00265932045851173
0.024156511445661,0.0566082996842824,0.0120094708448492,0.00292948529629438
0.0205522128834098,0.0434640851343148,0.013419687918566,0.00220259534332832
0.0242921975086013,0.0532435787812635,0.0148101802595872,0.00245722245084826
0.0206705475944494,0.0434071482094243,0.0147072673571359,0.00252440122516999
0.0231711617780439,0.0380488495504052,0.0119583073420276,0.00212715712088329
0.0199342416861555,0.0411499064840916,0.0145885846873404,0.00278155160966403
0.0215432943338756,0.0426808010069823,0.0153103723864673,0.00278168246471918
0.0196073052468629,0.0446525986706947,0.0133599957080439,0.00289877277406248
0.0258249125340469,0.0384444677243032,0.0118164278958689,0.00287825241737913
0.0225710239157039,0.0417336497042844,0.014975944974491,0.00277467328453517
0.018431660549563,0.0476440196305914,0.0124918219460976,0.00295134982603634
0.0211686646316801,0.0474745028782416,0.0113343285781351,0.00276907208423635
0.0245044095441046,0.0521691760284144,0.0147732579989668,0.00310106223525161
0.0195946699820283,0.040779758060155,0.0122878043815716,0.00254115825015962
0.0198709183492764,0.0375230703001763,0.0135075352009016,0.00249404317096676
0.0197792102123221,0.0480313576281024,0.0148026639618951,0.00321059528448506
0.0195415039210225,0.0375195599184889,0.0134197786947609,0.00267035640754734
0.022983678158548,0.048449197466248,0.0167124948625505,0.00244962114695294
0.0360311008611719,0.0138570770511034,0.00900101870323528,0.00133945085319986
0.0315311375244112,0.023138463022029,0.0159832799720269,0.00171452240438584
0.0346179471229462,0.0211288706129403,0.0152788954677303,0.00126202268985862
0.0289095497431776,0.0219506657676629,0.0121802694062829,0.0014672895884153
0.028513595014874,0.0275331721959798,0.0176402464145738,0.00136587092889832
0.0346730479956944,0.0210895951676269,0.0153584186311097,0.00155136084716371
0.0316254212328525,0.0190701431931778,0.0128927616704712,0.00152874393329724
0.0351034362475039,0.0183111868038949,0.0110184309431183,0.00109102880434896
0.0279625866569386,0.0211561650285873,0.0120525376427993,0.00138720532293968
0.0339590159865016,0.0242321983234145,0.0168339350487687,0.00131997657615236
0.0334253533598435,0.0208348156771285,0.011206462624022,0.00154590562979004
0.0322556207830595,0.0189975478041106,0.0134111922049615,0.00106622726491494
0.0460907513347677,0.0223989998836653,0.0132934535126391,0.0015229703854947
0.0312948014542939,0.0173763950024299,0.0113157888267169,0.00133789994450479
0.0332081968709964,0.0223677316218955,0.0113583360444582,0.00198572111385409
0.0277253894815473,0.0205577801223834,0.0117356988610639,0.00153105977189371
0.0327251573373756,0.0229877285421712,0.0128167231015924,0.00150010218443129
0.0376083358961305,0.0172490165754585,0.0119548421671826,0.00152169847682061
0.0560024286801947,0.0174016055875511,0.0152090990575021,0.00155910117301507
0.0424126506898625,0.0178265766683357,0.0176202623052042,0.00184421822260741
0.0316121352084364,0.0202672968614599,0.00856001262021633,0.00169497625386827
0.0294795016183282,0.023206588365555,0.0142894135331509,0.00179677240826926
0.035648446321975,0.0210457611536083,0.0169610015779036,0.00173794836485127
0.0398551801949844,0.0220829477215503,0.0134019908242162,0.00185706030718868
0.0358582354108645,0.0179956667615399,0.0149873840839022,0.0016815440261111
0.0374802306399797,0.0220558332101806,0.0157200105186741,0.00175274662747567
0.0392678768737259,0.0191458137285173,0.0174855805467244,0.00158256154844338
0.0424912008045773,0.0228142972254764,0.0169611778244071,0.00159270618600116
0.0368442870214394,0.0213219325184744,0.0221738126058567,0.00152583498099685
0.0369285911397736,0.0189206917497359,0.016746195569175,0.00175899533650041
0.0329206792841038,0.0201270045215231,0.0175000244742218,0.0019961555508906
0.0305218230760961,0.0163627417126826,0.0181586655572667,0.0017694567330188
0.0312781788384477,0.0169821623662657,0.0178311131867326,0.00152807602899324
0.0290625393715297,0.0210602546179396,0.0175881072046612,0.00146659231393123
0.0270113063277291,0.0197372558435833,0.0144927555884058,0.00161261818543728
0.0423256943888059,0.0194881547098393,0.0164097733838683,0.00162745082072447
0.0413030544283468,0.0176907106376977,0.0134522743557091,0.00172704739550763
0.0385388824865073,0.0212474134712385,0.0178765644739936,0.00151835930474927
0.0514910816862875,0.0229674439067538,0.0150786011262193,0.00158906691128173
0.0279747771720476,0.0208096324101284,0.0163362010542022,0.00153716550074468
0.0350494423177653,0.0176205239062527,0.0160749441724863,0.00129708271613004
0.0354970311448958,0.0249323400178216,0.0166047094357904,0.00181491192212156
0.0413805933154238,0.019213847462275,0.0136579586433575,0.00138047489296687
0.036552492353494,0.0197932498136401,0.0135290104073931,0.00144669626431566
0.0345826316392581,0.0221404720871078,0.0174762277036867,0.00158769396965967
0.0465674894388004,0.0216772021927178,0.0127151117688423,0.00154800230344366
0.0359180341330203,0.0222251060170571,0.0141534834330904,0.00166039233651036
0.0393392439062382,0.019943494855812,0.012106576811801,0.0016196022510728
0.0303293615536293,0.0175160493544339,0.0170093603949766,0.00187523009389173
0.0299091866995997,0.0204015685372051,0.0157276981850993,0.00178630067899907
0.0314691337177995,0.0175148545189015,0.0149838385440417,0.00161174679617968
0.0249920219500305,0.021614242419081,0.0156451353468642,0.00139086900188389
0.0363238745268629,0.0200598838602769,0.0118850337375721,0.00151045983230725
0.0343809186135238,0.020003861705451,0.0180554091137223,0.00172242966179363
0.0349691241489728,0.0205874675280309,0.0148599798488607,0.00167116557473739
0.0403772495368405,0.0218336213068867,0.0137957998620898,0.00178653623521625
0.0261176273985688,0.0195160877837971,0.0138027332133965,0.00136644733620018
0.0355246253248719,0.0224349027955997,0.0151387588122055,0.00183935269462998
0.0379260107716647,0.0166635468886051,0.0141025263839112,0.00127593929292231
0.024249593632859,0.0220828710196926,0.0132176171031734,0.00149224992346112
0.0285999624344303,0.0291186694472337,0.0147454159286974,0.00178929163501555
0.0282942672164714,0.0325070722544724,0.013849228788564,0.00193676998647763
0.0252345723054475,0.0300083160577953,0.0146647065858585,0.00198792605944066
0.0306669071739233,0.0305200841537881,0.0149638109671113,0.00199895589354131
0.0243434993003733,0.0266360071226164,0.0114932306563741,0.00184748611047534
0.0259557812402653,0.0325512941884092,0.0137045929530058,0.00158321662177939
0.0276798061771992,0.0274401458594351,0.0155371529103986,0.00160367517339272
0.0263839264737632,0.0254601192688354,0.0145444022516853,0.00148382425077518
0.0212075889265764,0.0270700998571823,0.013378782752249,0.00120373328662254
0.0193051839599793,0.0263293108842176,0.0140522220791117,0.00187750672571684
0.0282233013194388,0.0311781923618581,0.0160471405425921,0.00186817481754184
0.0240829766646316,0.0391522354514224,0.01186366543536,0.0017763190934609
0.0317662429003032,0.041337771820396,0.017745633355658,0.00171638230247204
0.0257773887242739,0.0377094683367945,0.0177095160650973,0.00198921513063828
0.0341795614341982,0.0353633262024676,0.0198406432393676,0.001756985040712
0.0445129867047921,0.0353228436002607,0.0135393217790261,0.00183367978970809
0.0316673813771176,0.0305488031537488,0.0146854694811821,0.00194478691252579
0.031893813532384,0.0322433742198885,0.0145324107839383,0.00155528961227681
0.0237629291448656,0.0359678651438052,0.0145895620759735,0.0014932371142605
0.0282117272501593,0.0278932688566977,0.0117795784061169,0.00137326937017616
0.0226665359973795,0.0279043878260444,0.0121395034361235,0.00135765599119292
0.0204150971823561,0.0342074254729674,0.0136482407856812,0.001656368246409
0.0247838747214682,0.0277874924130944,0.0115534496826044,0.00170654257896769
0.0323720753531176,0.0446658757478531,0.0138612950518692,0.00145110023465037
0.0228093297117978,0.028325796381618,0.0132294874471865,0.00141899172986373
0.02344356443066,0.0394413676986805,0.0163633502801476,0.00148530901569761
0.0209542004448834,0.0362114091946724,0.0142810508323451,0.00177528890996409
0.0257530328025502,0.0288251741435698,0.0140059302272589,0.00182842068584681
0.0303231422511616,0.0380420436830894,0.0178143109291301,0.00190749169656786
0.0275444599363371,0.0363675161975055,0.0126092958372892,0.00163005820495228
0.0224838635225827,0.0253956750616156,0.012574526028709,0.00132695755452472
0.0272476179112491,0.0288596695306788,0.0125070095686989,0.00172432702595893
0.0270130967128752,0.0316632320608856,0.0121815009153311,0.00159436626434083
0.0270291432653838,0.0325987057126173,0.0135474133992527,0.00161651511342109
0.0238313071720113,0.0351652971189022,0.0152020915681262,0.00170935927262468
0.0252916044601764,0.0268105304229928,0.0116888815627681,0.00183983741215025
0.0211564089821694,0.0323051653680422,0.0126644640006822,0.00178106523941239
0.0231599493507147,0.0296139313785182,0.0122080572510202,0.00168713659609445
0.0211538836354099,0.0382885563236806,0.0134857172402726,0.00120425262943376
0.0257072380385433,0.0275407872708863,0.0127620095405862,0.00170148290519074
0.0254773596293765,0.0377421954669548,0.0130675683603928,0.00165312323172645
0.0210868844793113,0.0322134812762517,0.013029298758871,0.00195118610053851
0.027338382007516,0.0281824398958358,0.013729526474105,0.00147798747038716
0.0347857614830789,0.026262843884836,0.0126959379026193,0.00131904677037862
0.0281667750285415,0.0309546446500223,0.0123750190207077,0.00167061100225093
0.0276747868449644,0.0274744537606982,0.0114357380549841,0.00153492158411134
0.0280898903462813,0.0293112228046139,0.0131307975134104,0.00158399257461901
0.0240556491005312,0.0229211312718821,0.010244026984698,0.00134599876634331
0.0254633214605315,0.0302328052148858,0.0148380497524854,0.00179045054138877
0.0274526454297918,0.0301273863415738,0.0174638621467118,0.00202822907692847
0.0231397907587462,0.0299557291644746,0.00989062718804418,0.00144783482875695
0.0275692450881588,0.0314484869564612,0.0134151337356382,0.00156523657437525
0.0223371314386474,0.0292322829270658,0.0105462391389253,0.00149108732773232
0.0248233190688747,0.0267262732027434,0.0123498453566904,0.00160792543691813
0.0279810688379182,0.0270121476501488,0.0126216115461982,0.00179625693253234
0.0288017071475014,0.0369572617988841,0.0145400868805912,0.00147465902892781
0.042507300257558,0.0287280241678481,0.0115382591862478,0.00188308073414859
0.0202216949844624,0.0323308882509967,0.0127688530672225,0.00177371689554787
0.0226406839564989,0.031943187578691,0.0144025496567741,0.001676967396713
0.0240113559966574,0.0292250909433362,0.0130106777789414,0.00165406580981729
0.0571738518828163,0.0493938934379202,0.0126340353890587,0.00516590380213897
0.0627193830865759,0.0530447619795262,0.0107052100555742,0.00386222039236903
0.0567681347761937,0.0562792711032463,0.0143144811028108,0.00512799351914489
0.0507983271060778,0.0615422364437421,0.0133588058445728,0.00833274598605176
0.0692833328925452,0.0615426964691811,0.0144281204651036,0.00480899137454427
0.048286657210808,0.0464882474992871,0.016566839282417,0.00347807408163393
0.0606631177180633,0.0468720523960577,0.0116107521643854,0.00464781363329352
0.0421842104330159,0.0425715832140711,0.0109724374172054,0.00126075362208495
0.0427320836802267,0.0489800881335446,0.013748083721281,0.00134768900178183
0.0457662343799674,0.0381240524878487,0.0107060983844068,0.00142987763226668
0.0429316082762471,0.0442802928315268,0.0102591519175952,0.00114813383833411
0.0575637920324605,0.0473327843879787,0.0119865134136049,0.00110799604933919
0.0559756496812437,0.0520466560674608,0.013537432964171,0.00135830423979259
0.040393393286914,0.0491235625357747,0.0118584340867446,0.0011657317225417
0.0530839152425974,0.0409175852721205,0.0106508446154654,0.00129392039308526
0.0453081121369984,0.0508336944563389,0.00933364553320059,0.00124215766954357
0.044674906896525,0.046339359275313,0.0119396884252705,0.00176516439085252
0.050989679044608,0.0433044352444996,0.0143785170454501,0.00148666842268863
0.0369916034537455,0.0494976132796873,0.0135215246030182,0.00129737784221455
0.0483677819255563,0.0510378089577659,0.00929668159078558,0.00177493626616652
0.0438879526727999,0.0434948836487099,0.00938064911144815,0.00129836499396015
0.0474566740210529,0.0396262472732158,0.0124470388134412,0.00107194078227727
0.0540523788835624,0.0513310310617141,0.0145445516276662,0.00127322494466004
0.0371894814527904,0.0587241427094135,0.0126789898311326,0.00152966212539598
0.0429415537557064,0.0616463119778246,0.010906914495319,0.00137152758347424
0.0311212241546125,0.04607089716175,0.00959735405905553,0.00123284075614219
0.0377272182563854,0.0548676812467136,0.0102977257428934,0.00128611424572844
0.0458163233368906,0.0425560990268795,0.0110247009485432,0.00128805483930657
0.0353074226595647,0.0432790881221857,0.0125367981442244,0.00122849772577823
0.0361332823412297,0.0545357756136442,0.0136177472739325,0.00138885470613587
0.0384316006937371,0.0411833195219911,0.0115691886134756,0.0012521480762655
0.0365552390467809,0.0511521372648567,0.0104643430710175,0.00121158490115956
0.0358611450680885,0.0406319573221485,0.0094652390734992,0.00121982696678456
0.0386142962639581,0.0458401657847979,0.0108258734765329,0.00129852000155729
0.0350045664561043,0.0398836592387604,0.0142167129051498,0.00122577722069408
0.0311730864853008,0.0562826571881505,0.0112901588871265,0.00127507702234138
0.0312440862613853,0.035913433866517,0.0117322852080916,0.00132944104137425
0.032590984232376,0.0435419084305028,0.012508785987757,0.00120072917523651
0.0359389256457472,0.0368984607405171,0.0111078056037998,0.00117113226419246
0.0653461382942852,0.0515891639033007,0.0150424843789215,0.00117294127534644
0.0345901002743278,0.0526940019890986,0.0147018176806301,0.0015245634062538
0.0542866100017654,0.0382134595073574,0.0110218315170923,0.00126518409655316
0.056221056763208,0.0527235597514102,0.0106365962350347,0.00108658500926697
0.0438685186756628,0.0491117655027128,0.0123956087246729,0.00135354051907013
0.0586014612345727,0.0490119372066709,0.0108571256946783,0.00128914710731592
0.049942040078568,0.0467170798144488,0.0151516711503051,0.00129265554362587
0.0432368700532624,0.0603687760350043,0.0142973773501433,0.00102981351191026
0.038645015024967,0.046842767407779,0.0124706125324316,0.00130755693939349
0.0397319657322476,0.0423566964417348,0.0104981342927459,0.00116956673966872
0.0435939130038316,0.0393839599454119,0.0100711518042567,0.00138743998022507
0.0589509620562123,0.0497773355582685,0.00982628902974337,0.00120204111749781
0.0345645178217199,0.0443923985868213,0.0129038237856325,0.0011142498420454
0.0468756275108444,0.0411498308915782,0.00932369430976179,0.00122445725266217
0.0453978017661314,0.0478483057467819,0.0113933845267035,0.00118574805576189
0.0439664595591482,0.0437404920993031,0.011026923938533,0.00123222961578247
0.0477525112222545,0.051734645804496,0.00991930808681907,0.0014269222621134
0.0549620976031086,0.0439889726511841,0.0122612962782617,0.00121357258867907
0.0508409638266546,0.0394680655373971,0.00917061640258839,0.00135507585876108
0.0558239305567852,0.0463858494238124,0.0126965938365615,0.00108096693115306
0.0466928968168991,0.0407021763601067,0.0111916134371527,0.0010912139446796
0.0183115332709736,0.0200238805211819,0.0151154446380799,0.00201068773328505
0.0177139499152228,0.01917188946612,0.0132315171240529,0.00260242398578036
0.0197368247703913,0.0215402227188087,0.0143780691804294,0.00200478551495616
0.0153484562465006,0.0169421535588369,0.0111312550112582,0.00224888168334653
0.0202163843086779,0.0183794230599613,0.0136834013516247,0.00251922633403271
0.0171846149291501,0.0192186812067615,0.0123900733455215,0.00194595018008073
0.014683007134363,0.0191488289052533,0.0130968452445954,0.00228945731655516
0.0146753800114197,0.0199271975483379,0.0102857343408242,0.00217500838804635
0.0258464935953658,0.0213058910185429,0.0138557426799556,0.00214386909913904
0.0183445251588652,0.01670226752709,0.0130555155604712,0.00223925137739464
0.0185877893553491,0.0190062352727076,0.0125167180226919,0.00237254020460996
0.0143636718548336,0.0170798784097998,0.0109526038078056,0.00202121488574837
0.0211880381877682,0.0229525410079774,0.0122963045855745,0.00239771379761302
0.019200684670139,0.017984898882292,0.0118571152020507,0.00197761699919626
0.012208460565734,0.0177647752515134,0.0128616195823072,0.00191232547265839
0.0176923844752639,0.0182386968448132,0.012320362949993,0.00203021378593145
0.0165207446539239,0.0211116860606386,0.0134379562980029,0.00223969848275322
0.0126484998268552,0.0178451770636032,0.0135857998446259,0.00193134699762656
0.0199922008973861,0.0161729718899894,0.0111967920073133,0.00211830658004769
0.0168323985453581,0.0161351655066903,0.0123951499327171,0.0016947413382047
0.0172471897146034,0.0180998682345343,0.0110107079142569,0.00147710576316686
0.0129825121079825,0.0199279505946927,0.0123564648286998,0.00230653300801204
0.0160746957806967,0.019166618245138,0.0124271995497072,0.00237458561744926
0.0143816179544062,0.0170154478711888,0.0118105375840986,0.00180014206364871
0.014140888055046,0.0157807575402947,0.0119553998918629,0.00170393034360448
0.0181488200391999,0.0161823545199152,0.0125518427514965,0.00186234479644974
0.015003947128458,0.0151859319102681,0.0131637899457617,0.00238269231521583
0.0192007262205644,0.0226275295585217,0.015029233459992,0.00235810556056478
0.0154444661953053,0.017288590112709,0.0133455101012182,0.00175074691975907
0.0138685339839872,0.0162424898806961,0.0119688662482898,0.00190524180954161
0.0201407846318399,0.0158230590822137,0.0104626540694523,0.00156923200795791
0.016657358580866,0.016309624076967,0.0163459384793642,0.00216840800188723
0.0175549445532882,0.0146601504098822,0.0139398538092235,0.00137475561185813
0.0220963895110348,0.0197951460954773,0.0118068459384197,0.00160772390712254
0.0176199340354371,0.0174622632225128,0.0114285210505441,0.00176233497475031
0.0193658556415446,0.0174703162853153,0.0114146837170486,0.00169995963447851
0.0159804142013433,0.0176218914798336,0.0113499317391318,0.00158672718902056
0.0204551928196217,0.0139364504997408,0.0143908170962932,0.00178612055935773
0.0147824073052931,0.0147421909936946,0.0104204269644125,0.00166615617193794
0.016802578979692,0.0152191451514891,0.0130497512732485,0.00182609233370106
0.0221188003018299,0.0189840703130137,0.013633553505588,0.00190824180946963
0.0153801889919637,0.0173342085681954,0.0103542746049536,0.00205427909219547
0.0148619698973411,0.0168104729040767,0.0114553552779858,0.00187283418060175
0.0201329233846325,0.0184096018907283,0.0139091257110782,0.00175652336754044
0.0206341486616445,0.0175584108622023,0.0151505675379873,0.00207006031871575
0.0184192792385918,0.0168692332256834,0.0122317305190307,0.00184274002880695
0.0243803371723879,0.0156872013724045,0.0117103898878245,0.00141255831475316
0.0146171217244194,0.0127433003278482,0.0132572857233147,0.00169788161689544
0.0158811065247275,0.0142181412817421,0.0116170530869731,0.0018041708002257
0.0142907907499212,0.017202631854878,0.0122905552829627,0.00163628854532721
0.0119586291908573,0.0195682290197702,0.0127254259287149,0.00177386967334535
0.0150735631843262,0.0168380506731195,0.0112307298591292,0.00189364209305781
0.0161077451512771,0.0156883007065681,0.0133381852531177,0.00182999409358246
0.0155129886863032,0.0165749497329602,0.0115215098943342,0.00204823669773767
0.015132489458733,0.0136268687159517,0.0135194572223841,0.00182908101022233
0.0169424393217903,0.0147427111254623,0.0110867806841507,0.00177597668625492
0.0162350859081854,0.0198261123031683,0.0121780324671863,0.00169757261063806
0.0153089397982776,0.0162045452067134,0.00984907427875767,0.00177384810301348
0.0203636430220469,0.0171518333613425,0.012881471379175,0.00184782296613959
0.0217368007655639,0.0191146468787549,0.0139902810629455,0.00184593603828423
