0.0245282991783451,0.0351715158828092,0.0119172130827676,0.00334632270335337
0.027370495596006,0.0201723297897383,0.0166307178246996,0.00334199151908493
0.0264523102491144,0.027059818581027,0.0153985036159325,0.00302532317831201
0.0241734169939382,0.0315250943687699,0.0113720716157792,0.00208689629765976
0.0207344823030964,0.0242778203326409,0.0119996956142521,0.00340278782934467
0.0242339415925319,0.0250361127168794,0.0129775436952275,0.00411706033416913
0.0185462826297905,0.0278503157132721,0.00921994701009966,0.00272721534111804
0.0222012321985599,0.024625444901498,0.0112005311190705,0.00285544313691979
0.0173191539282957,0.0281416796555693,0.0116011539174061,0.00377399690421455
0.0209122821251735,0.021833431099527,0.01033461737171,0.00249578886827463
0.023474521296967,0.0272613405371499,0.0128489510552517,0.00291692933507547
0.0209319216654491,0.0220528177324992,0.0126749746858136,0.00382182152338767
0.0234348065549171,0.0228905326813495,0.00969785325067037,0.00186206142784212
0.0216427226802884,0.0251891743313448,0.00989962137027178,0.00439177424566811
0.0194847034007107,0.0246632470342859,0.00850093806738401,0.003654931899838
0.0265548100348211,0.0316903599027085,0.0130610397910877,0.00178699381409275
0.0246290003696333,0.0270681540411572,0.0114997254050277,0.00197233706525602
0.0217021600675632,0.0322070813610524,0.0119047776497672,0.0025243101424189
0.0193720148346087,0.0262043644881393,0.0113998446286564,0.00357400843245577
0.025842942945036,0.0228138741601624,0.0107168723416927,0.00160077603477031
0.0323756866520707,0.0314036262769704,0.0125945032025575,0.00209886949884986
0.020779671035501,0.0199880788850557,0.0126790412053977,0.00201331693420798
0.0189348487203498,0.02745401761519,0.0126247169225834,0.00190550500246593
0.0214137228698382,0.0247428087470853,0.00866024814430166,0.00207495511059131
0.0259265259876763,0.0264432287282993,0.0125140084125219,0.00283777631653971
0.0210173203138055,0.0230455030912796,0.0108095201202657,0.00291743097634853
0.0222708499509784,0.0258482315124277,0.00896025684581381,0.00298343457144117
0.0215231079061026,0.029577544335572,0.0115797712174557,0.00167993211397382
0.0218925997664879,0.0253470153918517,0.00950779021156486,0.00289584371262284
0.0216965845811622,0.0339389945347195,0.0117664188078895,0.00216848446177413
0.0230328813598307,0.0318155598604594,0.0110765328872714,0.00318467481691646
0.0251742305190687,0.0244957940148287,0.012795841261208,0.00186025419947691
0.0231427247572053,0.0260626923652593,0.0113838858178218,0.00287449301501759
0.0248474589216762,0.0266822755365898,0.0104674215803056,0.00315412315845202
0.0197600830496952,0.0293023641092962,0.00856761240292519,0.00268467896516329
0.021716880353225,0.0208909716069313,0.0124710163257072,0.00240672061390123
0.0202730871975687,0.0276813215862972,0.011235483515656,0.00383986892450593
0.0211733730138144,0.0271623109620742,0.010139626052809,0.00374228199865471
0.0187969505724131,0.0269333607240644,0.0106453829345974,0.00277626362141714
0.0223508309710019,0.0214655813427469,0.0125159825177964,0.00228344843610959
0.0249652393126653,0.0295605661577773,0.0151020499672685,0.00193161726489639
0.0190692650944127,0.0238980598782382,0.010738510445743,0.00249973421471163
0.0206491049934728,0.0180026571231586,0.0114815602275546,0.0038248803130713
0.0216838286519409,0.0293956052958793,0.0148893209332391,0.00404138269393862
0.0221023914155894,0.0291313258289005,0.0107273420190471,0.00289426409060888
0.0228084053323488,0.0321098288244362,0.0132133919347685,0.00233744251537881
0.0226923423668914,0.0248957335837077,0.012894990288736,0.00297873414311063
0.0229041225160883,0.0297926335494198,0.0122959803037198,0.00222780965121147
0.0185110360555369,0.0260470356698264,0.00940312729944794,0.00292255233081148
0.0248134760080829,0.0298363818295019,0.0131245474076666,0.00307118362448995
0.0259691963362757,0.022238826531939,0.00863374182080448,0.00290125873533272
0.0267322715535952,0.025341977173484,0.00954008162631472,0.00262106901591589
0.0190389611466458,0.0264518738752327,0.0113388469046356,0.00237650503628339
0.0251487889761729,0.0234893779757782,0.0107821346744451,0.0019042600183276
0.0219168043070671,0.02758678036059,0.0133391696076724,0.00190188894434748
0.0238955815384091,0.0302049462885876,0.00986462921301655,0.00189445470919619
0.0213966649453758,0.0249970764736894,0.00882826422590829,0.00161698388769878
0.0240261579071777,0.0318338076405574,0.0113948151397139,0.00199188179122021
0.0267770069974179,0.0262462552398885,0.0114205156411308,0.00205997343751358
0.0273631286611319,0.0261190129772597,0.0127244350231841,0.00216928128873624
0.0395239867850092,0.0456542108773369,0.0105433364456288,0.00354780026603766
0.0406707414363462,0.0583603812449225,0.010833785760439,0.00432917933171663
0.0277053341722703,0.0510880652626843,0.0126831763144502,0.00420309937206181
0.0414927765884175,0.0458329540747768,0.0121288194493314,0.00349672268832552
0.0329411273813538,0.0435333857946481,0.0125170944907206,0.00353700991437381
0.0339776230563991,0.0536662468584503,0.0088931037312999,0.00415713129464626
0.0263927372466248,0.0504751947994606,0.00999758144576594,0.00491108561252452
0.0415652893191362,0.0541380590447866,0.0133779444625818,0.0037337008273344
0.0322186014198664,0.0567310754535347,0.0100080986158833,0.00391738393240796
0.0347847798492798,0.0466585868775898,0.0101021387676778,0.00408124865351695
0.0313862572196999,0.0520798264595233,0.0104640258255159,0.00422836191539692
0.0355670613637687,0.0416025309391256,0.0107544978528721,0.0046000486553826
0.0374660475407216,0.0445476180573833,0.00958437157464283,0.00331240931366463
0.0426804424137905,0.0499057126178287,0.011329348228127,0.0052830577384791
0.0391062388206561,0.0454591561819712,0.00862123251795149,0.00374076513636681
0.0352675537138385,0.05294029816449,0.0112653209210409,0.00479978964989835
0.0329933530227209,0.0404104628062199,0.0157587494392713,0.00364827199009846
0.0377807399217358,0.0524158180613907,0.0126778530950533,0.00354516178842906
0.0324065886112528,0.0562396707998242,0.0112153469004393,0.00442735136644519
0.0358519385890004,0.0559208440049638,0.0106557958528997,0.00491314059827397
0.0359668684429221,0.0611793922498191,0.0117856238236022,0.00412432199460531
0.0372716505888823,0.0430423396540893,0.010532182246485,0.00334068613369858
0.0356611875126309,0.0481083270834888,0.0116388648128635,0.00362764553062304
0.0356075517444818,0.0783186139856121,0.0159470357969008,0.00405325953412333
0.0148418259422754,0.0495633707034266,0.0110195509217384,0.00331472451528962
0.0257290730969935,0.0518421698044893,0.0126749994853432,0.00395210319219533
0.0295948098771373,0.0465289775825874,0.0103517177572259,0.00412377907512124
0.0420546169415383,0.0465267067543258,0.0103883526120324,0.00385988251061893
0.0262960724587324,0.0507072207116365,0.0100231803388973,0.00371282837828403
0.0338253155296527,0.0508698364959216,0.0101673065699189,0.00361644085932927
0.036880683831999,0.0351310248315851,0.00918241719491818,0.0036474113951303
0.0308440995887952,0.0446828309352695,0.00992888529800753,0.00392960204079008
0.0439011038914517,0.0407254874640017,0.0165898921289941,0.00430248377605543
0.0335831438518754,0.0313347892339351,0.0145038668901134,0.00412537088195253
0.0275348257384869,0.0501821772377221,0.0131380986768452,0.00398814417549428
0.0358148321834494,0.0502146988662866,0.0121277754890499,0.00435397024888353
0.0394594623542277,0.0438305051922334,0.0123261116949516,0.0054775056103037
0.0469497406012745,0.0479731216872374,0.0102602833908121,0.00380519704341598
0.0380458366522193,0.0480644703539108,0.0116579332882951,0.00395852985810929
0.039266234839804,0.0526901029863178,0.0115110890813164,0.00336420797041101
0.0267354911881234,0.0413630574340088,0.011265868749988,0.00439585591521396
0.0342597154466202,0.0464068221843081,0.011212786722129,0.00367459918933397
0.0326611000835067,0.064714476320269,0.0086685461472432,0.00448207603495176
0.0312342380472052,0.0437998652533639,0.00964938798303219,0.00331600585534899
0.0368507876474877,0.0497686182859239,0.0102372643267224,0.0053894708675161
0.0464504713017724,0.0494024695571086,0.0108590117904971,0.00421913369725653
0.024224694827653,0.0535677654900124,0.0126673520147921,0.0041761771041712
0.0362986952016191,0.048456457277002,0.01417632174833,0.00436254073840733
0.0440047454166476,0.0527037951514197,0.0122977590242776,0.00393708488945587
0.0357649106226091,0.0560524132085974,0.00903867814876878,0.00391557072392552
0.038785419682249,0.0458134819084446,0.011912529542519,0.00422104303245037
0.0312070859536014,0.0453824168243191,0.0121650915765188,0.00400182993301817
0.031182316713382,0.0438604771446437,0.00929069822010842,0.00487489405547949
0.0350397289425893,0.04636921140107,0.0117518470620989,0.00340173862883848
0.0349827933651701,0.0445263004586866,0.0104087240472829,0.0046115055613625
0.0257912839503605,0.054348924703632,0.0108618080632603,0.00353808033376981
0.0328384846602637,0.0410047551218548,0.00892863561217655,0.00395662679816746
0.0316379219665824,0.0520504457225279,0.0087219398197795,0.00457170973959881
0.0416621110054623,0.0566300864318634,0.00846150245571954,0.00468516251377464
0.0302365726700975,0.0670671934979871,0.00998563467220209,0.00382811400257835
0.0351673333138603,0.063184733343459,0.013711399270344,0.00784555762256622
0.0255502584981935,0.0502283085234461,0.0118913631564207,0.00753784696731281
0.0352330196332913,0.057469615946079,0.00952075108399696,0.00816425372540996
0.0298595523518341,0.057782171819093,0.0122410317138976,0.00835963642143838
0.0348402227269479,0.0473720818762794,0.0119063880257871,0.00720233947717373
0.0202821778236051,0.0503929757321412,0.0125963335114081,0.00731160182310103
0.0229983393635775,0.0644077041046254,0.0117761389743915,0.00768297789798727
0.0184595691471306,0.0495462076602501,0.0104644865902316,0.00913065969272658
0.023869138147531,0.0487993882490586,0.0113682269871115,0.0081693066317169
0.0284837573824873,0.0483685257657605,0.0112041569593449,0.00723893029553067
0.0207933455190448,0.0527262421596138,0.0128293943738405,0.00639909783289381
0.0225242954769456,0.044907373856858,0.0101806333242694,0.00758739127797513
0.0170167356984272,0.0462955079069788,0.0101073929236625,0.00993864862066152
0.0219261970545349,0.0513915047232851,0.0109091963470107,0.00711650085627707
0.0198163598535838,0.044511684923446,0.0102866502943587,0.00924176857761767
0.0248298136563988,0.047478006780205,0.0106380101919203,0.0078502180545531
0.0252885816515894,0.0493387200151542,0.0117342832443551,0.00851183850399482
0.0188156186409999,0.0406057035647802,0.0100432655653333,0.00986591997962004
0.023406991686288,0.066419623060373,0.0113743170599627,0.00735498338186145
0.0205478271478927,0.0480558895539902,0.0148387423824536,0.00739403806658991
0.0225074090684979,0.0447445946870948,0.010925476433944,0.00713030633446537
0.0174161694222928,0.0541408784126278,0.010970372026511,0.00899618411747642
0.0228675606722383,0.0535221170125426,0.0119966681629296,0.00689096692132725
0.0195874256029288,0.044179655649331,0.0112401930971134,0.00867008859933981
0.0271778984210696,0.0390266161630808,0.00972155770078169,0.00949837386859632
0.0201157320446138,0.048073407043132,0.009466602007771,0.0101988643571683
0.0216638351072328,0.0481134778069889,0.0100815238793211,0.00776694666344965
0.0270018896848067,0.0593043131946624,0.0106545216444977,0.00811807342436168
0.0234116133280842,0.0468212823942607,0.013941805518673,0.00913326423128021
0.0226674014475323,0.0439433130033228,0.0089638670893493,0.00718115630539522
0.0233926991911711,0.046221612163801,0.0105579948391364,0.00871633965802138
0.0165189376001768,0.051744014801354,0.00775832889200534,0.00739270401284993
0.022729936033777,0.0515315176181764,0.0115917582492359,0.00903080687778273
0.022773927739539,0.052992919399669,0.0118978329908893,0.0104332560157687
0.025795200265785,0.0477554336439449,0.011483480829347,0.00829914320884993
0.0213373270658872,0.054665733824967,0.0114366846309596,0.00773852927293659
0.0215012433441907,0.0472381030543113,0.0106062404209688,0.0058514198113303
0.0193723694064869,0.0480206476278893,0.0092655254020359,0.00955330711156591
0.022467891302351,0.0520518693079873,0.012647615101365,0.00762694575960469
0.0257661634674726,0.0601768873438884,0.0116716522595163,0.00677239657341319
0.0258513117687268,0.0475274382467937,0.0106101826015006,0.0067493236950021
0.0217509175599473,0.0596332462178039,0.0143424876240143,0.00954807070206243
0.0185307938970311,0.0465769720454924,0.0115313743077133,0.00735365466446561
0.0234821094869441,0.0454156702203253,0.0138609045750588,0.00725717588999875
0.0224679779923328,0.040888929597139,0.00957657723290721,0.00749858239612928
0.024695684252278,0.0484629487094657,0.0132235438656162,0.0102963386527807
0.0209513896058508,0.0524950350138849,0.0105038477389112,0.00865502450451407
0.0259492077232406,0.0538615533015199,0.0117600974599593,0.00695150570322126
0.0207962872840204,0.0468984638137753,0.0130549387020776,0.0114345318992631
0.0233799967474081,0.0470055379447418,0.011643917738996,0.00811446428248978
0.0236667260153855,0.0502789436220485,0.0139432814485762,0.00780938012807789
0.0310967295886212,0.0490217488890935,0.0149552526148599,0.00705292164566665
0.021416085671087,0.0477982080997173,0.0126613944220328,0.00959134478061272
0.0209944445297159,0.0542857657966181,0.010804168617509,0.00820162051944182
0.0214099908016232,0.0419345499375836,0.0108167325256851,0.00819446894815312
0.0249004577921276,0.0679296427327722,0.0122823855334228,0.00749923165251591
0.0260854619954582,0.0544660657552374,0.0128234473488021,0.00724652995304618
0.0240639497677919,0.0505107229434247,0.0124475580087796,0.0101514027391128
0.0205344065727027,0.0433852021437543,0.0107442201536684,0.00645360568489746
0.0234841899908083,0.0510359653484838,0.0121085682922029,0.0114545971450151
0.00853235939672611,0.0350964056533076,0.00909879010773325,0.00128262040335143
0.00966631815127005,0.0309359801791604,0.00805702316393504,0.00123923422093785
0.0103066543593334,0.0273144779113851,0.00996932647436494,0.0015420385666532
0.0107865836567888,0.0261633946759521,0.00805977602069073,0.00106585513525205
0.00765789647668529,0.0219778713017488,0.00635242136440541,0.0011795086454695
0.0124075305050295,0.0281109893857583,0.00905105340527391,0.00121855121875567
0.0120739106182262,0.0377800948282162,0.00802851436252075,0.00114870004370197
0.00893592619704603,0.0292821016645735,0.00914568305894037,0.000990773162600858
0.00825741991108144,0.0338084945527539,0.00799783482913229,0.00117557157531374
0.00662699311934789,0.0336490301642616,0.00871512754478571,0.00108373436479249
0.013436360145183,0.0351089422045207,0.0098877198573502,0.00116305545948535
0.0119098354333911,0.0267488638261203,0.00918955240691054,0.00110110527297286
0.00820203646096351,0.0298742948152928,0.0069210858708349,0.00110959469513811
0.0102050270014076,0.024894257028141,0.010484955720119,0.0012096252457856
0.0167806042789481,0.0315550554186931,0.0075172105507796,0.00102505022182673
0.00979290654025185,0.0287681360994869,0.00964896365803989,0.00131048981497885
0.0122543961879434,0.0229622032499355,0.00719112656201032,0.000973889777549434
0.0092890622463353,0.0263220798755998,0.00893363278217908,0.00124275554423591
0.0108930839182196,0.028679923356582,0.0089979327197703,0.00142483176671236
0.00937316396508633,0.0319631107665072,0.00868939297684538,0.00125789530378365
0.0089646056462624,0.0296732686032714,0.00710654813347124,0.00127617251577355
0.0114548203104003,0.0393012520306334,0.00806790379956697,0.00117438171698426
0.00601869409899475,0.0269189203748369,0.00746388255973746,0.0012813499989253
0.0102900796602984,0.0286905812110481,0.00678004037103375,0.00121833601597293
0.0123347048403178,0.030696085174671,0.00940619744135056,0.00127427987798981
0.00893806825306326,0.0280714148185249,0.00825664799212253,0.00114034879612282
0.0102555744686001,0.0203461343543331,0.00578780833704402,0.00123089001441943
0.00873408621847111,0.0325232101017592,0.0102399493775301,0.00141315332046908
0.00796436269660872,0.0350565348888311,0.00704091317009017,0.000944820891332688
0.00935191610195764,0.0315700056309568,0.00697110607222708,0.00118242611835266
0.0103660171207612,0.0422131155378223,0.0067769518967781,0.000920663901249042
0.00711773535907019,0.0396454121958554,0.00803318960215348,0.00117661126594103
0.00689089325906944,0.037657770546544,0.00608576710316637,0.00121169265619947
0.00755673437879776,0.0342756689278195,0.00957715717913579,0.00122055904038259
0.0115438455616297,0.029752832593783,0.00789339887071766,0.00117795324106635
0.0102638766879696,0.0309546679672164,0.00785205913189182,0.0015858585221673
0.00832869661247689,0.0320879981897806,0.00810913961997668,0.00102091698329046
0.0070102549440627,0.0287626208793542,0.00726105432167548,0.00119711628747566
0.00822214796783063,0.0353779715349677,0.00947861961815387,0.00119723413051164
0.00594412544703701,0.0302497437718837,0.00886321691146668,0.00118444939991691
0.0056577617274037,0.0285571504787095,0.00744322990604966,0.0010654725701975
0.00867804517971242,0.0297698466851717,0.00868571980536169,0.00122607561440842
0.00685792426149208,0.0306932118594937,0.00702556888006489,0.00104282918153954
0.0061802723209072,0.0264736544053084,0.00751186041398454,0.00125267326418745
0.00911712003773236,0.0273285337938222,0.00897731586072237,0.00110097152646588
0.00626685896999348,0.0291706949100802,0.00811515766636782,0.00131699381083212
0.00493669597909376,0.0301815575075584,0.00746686960635574,0.00124409690333985
0.00745055810411672,0.0291922768875631,0.00988913521951143,0.00126439330796095
0.0055055021055205,0.0314642938760914,0.00740728863377479,0.00132200863710834
0.00682831286679116,0.0310947565190918,0.00822800568993906,0.0012705938414468
0.0062950255123038,0.031678668407447,0.00727041815482125,0.00115563019288684
0.00676504475557513,0.0234893356084632,0.0093753533213949,0.00148643279858257
0.00610693031597621,0.0276838817150438,0.00714095708322155,0.00127831545203852
0.00748298130319535,0.0276924196369677,0.00705747949113467,0.00119333806422772
0.00746658457928804,0.0252751947247047,0.00687587845809706,0.000998457477220505
0.00702443106655696,0.0315543711584043,0.00602978853823117,0.00112698516897804
0.00630107706249912,0.0351384679573849,0.00706275595968318,0.00105525195889872
0.00580235185495981,0.0316120855142017,0.00829005506476306,0.00121620839443035
0.00709428985144296,0.0306124832368705,0.00792317211863483,0.00124863300463412
0.00835225926063044,0.0277304286491295,0.00845145092233011,0.00116756766920738
0.0659131758525539,0.0438945274437347,0.0169079614040382,0.0345110878980924
0.073587550598654,0.0436863076875067,0.0140337047630224,0.0241293612678043
0.0787313226604258,0.0288441555575588,0.0163239012552963,0.0189086549890704
0.0778159606849338,0.0311636487839724,0.0175242346002216,0.0232234678813275
0.0539890897547757,0.0398737024225945,0.0229561829289948,0.0247700956344428
0.0670891244491152,0.0386492720934737,0.0164266849967468,0.0278638568944912
0.0589841967169158,0.0338479682629816,0.0167312040956449,0.0205080136365272
0.0608808989358952,0.0358563565318956,0.0180385939871092,0.0246824021131388
0.0876175016109032,0.0374427843273793,0.0243961288565752,0.030455820351703
0.0534138641287472,0.0239610181361739,0.0123608703684208,0.0278661833523527
0.0546862529835888,0.0476533159886889,0.0158507693107797,0.0197982955431694
0.0669023957057668,0.0354657927432248,0.011416717809794,0.0182339574304117
0.087617395983171,0.0313600944140799,0.0166483316840771,0.0228817955301126
0.0767723585079767,0.0359935802849417,0.0146039969797575,0.0224090555170871
0.066505250368709,0.0325815837982964,0.0168733520227906,0.0149177414366215
0.0654413368727742,0.0354810433011779,0.0128921418180961,0.0257166590943822
0.0850591612311607,0.0243858580873909,0.0137360817929784,0.0194773101809457
0.09419222556304,0.0431613080045681,0.0168784101618806,0.0235591764125464
0.0804427160716237,0.037219789522337,0.0170776681546323,0.0229652454219576
0.0578110942538965,0.0347837465844186,0.0122099027582693,0.0280528700333244
0.0892443618431197,0.0479225136079167,0.0145282287785711,0.0261130315063229
0.0757186209470795,0.0353088083584878,0.0118362912073109,0.0161686230176513
0.0924841477365148,0.0307369869087016,0.0157243134759708,0.0246794813003009
0.0711353037373413,0.0288619311308876,0.0167879993628976,0.0261941569983307
0.0598452783386165,0.0341534689865452,0.0192597997080861,0.0218603656902375
0.0654658656899803,0.0307958615707447,0.0179731184805735,0.0223516607668279
0.0603041865020326,0.0395716479501061,0.019831267299758,0.0235802846506628
0.0611039611662422,0.0332523091788128,0.0153335727200027,0.0208518086854761
0.0645147897848285,0.0307286601154421,0.0143348584463156,0.017350648529223
0.0669290068565416,0.0339729538896856,0.0166581615845487,0.0210807684525396
0.0565846164872255,0.0386287072685152,0.018620958075161,0.0209585350151036
0.0620287412386716,0.0305540466104727,0.015378791121804,0.0217598340623469
0.0700961247148559,0.0463758932069647,0.012686513284806,0.0184222186475555
0.0695050690741745,0.0417827235795682,0.0130298822679456,0.0224385535784056
0.090639799516642,0.0269806277137973,0.0181370497709299,0.0287881316644192
0.0819786369741401,0.0319534938100904,0.019418748481461,0.0245288786764707
0.0721663950604915,0.0333298997144817,0.0116574492597404,0.0262095521498817
0.0788447835987674,0.0358291890471697,0.013994618843911,0.0216248325506311
0.0488081406424343,0.0240604269157517,0.0157584846958673,0.0199029547098722
0.0712033835337597,0.0553169943163355,0.0147771652195459,0.0212238201942525
0.0675436214321253,0.0295445979445991,0.0162967296158818,0.0227394615258223
0.0607643075675541,0.0322254855846697,0.0194324628331825,0.019927916168046
0.0719455171872478,0.0339195553076126,0.0188743816863571,0.0173015213391034
0.0556395814850532,0.040852418575489,0.0135992633545321,0.0259346822760895
0.0587559402232755,0.0413395082156934,0.0203434365891948,0.0214169728895097
0.0672216360336207,0.0342519730290175,0.0155775757731103,0.026819826161235
0.0647921857878728,0.030854650804609,0.0155184945725183,0.0309235641934779
0.0628629188275626,0.0398806222503338,0.0153697961963191,0.0158918559860198
0.0754136172856738,0.0392566610112711,0.0168787410879731,0.0174229964822202
0.0961005949875563,0.0436668371168751,0.016413673255328,0.0291922368016847
0.0843387614312754,0.0350312121955605,0.0200370794376451,0.0311048813493087
0.0759598550965036,0.0507816702488332,0.0126703874596261,0.0180797201956139
0.0763238501938536,0.0342186774575144,0.0165779875910983,0.0244315897449532
0.108628794672945,0.0421870620737251,0.0165766079682801,0.0213148674255602
0.0536179167538713,0.0303279093303727,0.0187379804015515,0.034995368468796
0.0657295829002537,0.0376731400116506,0.0157183320889342,0.0168733372347001
0.0864315525848791,0.0374954699941733,0.0190184491710774,0.0285900971613868
0.0836828395424537,0.0305137296512537,0.0189461511008904,0.0204821943608349
0.0544667990007695,0.0406707292865959,0.0190341171413346,0.0223267687538271
0.0979146331953174,0.0390637830034719,0.0157321151295076,0.028492854732204
0.0715741308441164,0.0718775096239665,0.013919951210463,0.0152213401077992
0.0569181503564267,0.0660660477324931,0.0167684934208004,0.0232733727337816
0.0703979903764184,0.0829442318677903,0.0168280313745594,0.0167577129614984
0.0717441613044749,0.0456155350295178,0.0143891983358498,0.0177033320348714
0.0810455959657883,0.0500006810984903,0.0154106701757333,0.0159244320877293
0.0753103101573799,0.0808256159886168,0.0155231220852236,0.0202544980535199
0.0740475257679724,0.0699332974291595,0.0136819186044747,0.0150962943080718
0.070216084765196,0.0703194767534132,0.0120365637463068,0.014792230602293
0.0735216517435616,0.0676268184790149,0.0141205218003261,0.0165941016090414
0.0788960101594325,0.065123219921502,0.0145527023652629,0.014952076932088
0.0877494968193373,0.0618664948197335,0.0130544553108182,0.0151790092518583
0.0737217161832999,0.0874645151183326,0.0153563355670687,0.0191954194424482
0.0769694259699625,0.0559065143917384,0.0138287254017024,0.0176934352479122
0.0956351329917955,0.0437569476679137,0.0149342228156697,0.0207256208808499
0.0680894262557563,0.0751144681361931,0.0131212589369809,0.0187604378699572
0.0682123084517322,0.0657242899155818,0.0171121816366766,0.0149152132476945
0.060674757777226,0.0618120777617147,0.0144193318382147,0.0178696369457963
0.100445780332338,0.0874026209951395,0.0155926813063704,0.018858359575575
0.119771490627665,0.0935885845595479,0.0190219364911095,0.0174043833221991
0.078474279695248,0.0735027067174235,0.01874418081688,0.0174637449872413
0.0801242260087803,0.0702672960461258,0.0161939824382187,0.0162927947376194
0.0845148945982323,0.0540796719240254,0.0189919410656814,0.0173815481589839
0.122356881484921,0.126448814135751,0.0199348271204862,0.0154947053455936
0.1619629117831,0.0982930129513436,0.0141702490784454,0.0290035824960098
0.0998595811273485,0.0686153442071548,0.0156321444947673,0.0329971858404461
0.107571599443585,0.0538974721515425,0.0163517612517397,0.0271406339683587
0.0945860326021815,0.046513373459299,0.0124593735997813,0.0262661290950784
0.114490482941305,0.0644410197755646,0.0147577082457795,0.0265893700040427
0.0859659878899525,0.0576127104976043,0.0145473346200132,0.0220959884612649
0.101493148099297,0.0474235537333056,0.0134853477568032,0.0153200871428623
0.125279006057988,0.0497061804431586,0.0154345096397079,0.0240608712073054
0.0930886881471349,0.0570221999945484,0.0149862649543101,0.0214067684113298
0.122194750864034,0.0477929262897321,0.0139144433169302,0.0212092357374142
0.0923867356932565,0.0470869686337727,0.0169850526797439,0.0166027632384553
0.138565963189167,0.0524966211892412,0.0137330247902436,0.0144599747563283
0.0660210492517243,0.0344613604754295,0.0121622228089446,0.013337428041761
0.109428192805698,0.0369858229479298,0.0124092721253843,0.0116947679816216
0.0929169165758005,0.0360433208346903,0.0154699666929725,0.0128310595787997
0.0821533439678266,0.0381668637780675,0.0168604580101242,0.0113064846326706
0.0907130106459522,0.0485499712912626,0.0167225808237206,0.0153350579828015
0.100315366469412,0.0425415074296956,0.0199161914510722,0.0148025746073316
0.0926402465538202,0.0306058598805607,0.0123440461194987,0.0129385114576652
0.0797458245760388,0.037014706543741,0.0132385902040225,0.0186460110953606
0.0983477640231228,0.0337776791672476,0.0139732608213499,0.0140058354841835
0.0958367146836312,0.0335482148006545,0.0134267600846806,0.00790082818082815
0.0897505248346711,0.0347922814354554,0.0133201423311094,0.0111067124911242
0.0839775795788107,0.0276896127612454,0.0136727428062195,0.0113765843834719
0.103631124028033,0.059835406802932,0.0120587910170964,0.00845148414430826
0.116420736132417,0.0437994649148514,0.014759986782419,0.0088619338732122
0.0964726576947531,0.0354868971535438,0.0139278270125514,0.00816572473808803
0.0999146012630137,0.0430248446576427,0.0141682810025173,0.0083900730496946
0.105333904493381,0.0390900163772733,0.0155398169813794,0.00741682235757376
0.0919855718629695,0.0366373543624239,0.0125143057713079,0.00802118811100545
0.100702315614156,0.0346337926217599,0.0132176772021473,0.00762478610271766
0.0964226837936834,0.0443968040942099,0.0144569378641557,0.00980786854034486
0.0836830339614859,0.0558823140131174,0.0122979483151702,0.00957292856669371
0.0888686656204661,0.0470998079667326,0.013674158904416,0.00990302507279748
0.0772466352414295,0.0430777980194657,0.0131692278233069,0.0105458389942209
0.0781854848593406,0.042271116516316,0.012326846576723,0.00823572657371651
0.0724655215563042,0.0482954179791353,0.014867890615342,0.00872253047608451
0.0193862995411554,0.0360001652318554,0.00958711992780658,0.00115684164877681
0.0179313576031075,0.0295801751804819,0.00738039647865716,0.00103541540667404
0.0228844379767605,0.0358825005595811,0.00941358576640467,0.000854693209962918
0.0227911093742526,0.0315939677087798,0.00927145267232275,0.00115561119207691
0.0161288279226426,0.0259129065419046,0.00822175609972387,0.000985846211559724
0.0191317521628671,0.0216830589678307,0.00911734986062333,0.000927023501928571
0.0225858467296118,0.032562686597384,0.00781603375930692,0.000910932504918087
0.0224000869280767,0.0278888315310847,0.00645225336185423,0.000795151169795007
0.0242926340476924,0.029846573101028,0.0060833827523235,0.000843842399193142
0.0272053658611741,0.0258713269037609,0.00907976943693677,0.000956384802586535
0.0257999778318501,0.0357018051970772,0.0107617424006197,0.00105224235452962
0.0283526297245591,0.0253884196352066,0.00744746427450103,0.000802117563274831
0.0229479058473194,0.0343280093660674,0.00731405005966054,0.00119889991446424
0.0265921328981165,0.0337363677630932,0.00756151002871006,0.00109492243872978
0.025138029518774,0.0333781653343218,0.0058575297679772,0.00111875577086758
0.0279225464015724,0.0309650027538982,0.0075839831208636,0.00105891173652579
0.0182255694179608,0.0301082458497224,0.00493108987335569,0.00099912973747027
0.0192109936918958,0.0336220603295887,0.00827591833911935,0.000930856044531781
0.0197144166479289,0.0275471705223328,0.00977962257272285,0.000922794014215214
0.0166043052150591,0.0265232302081633,0.00707778982003686,0.000922880157637856
0.0255813206083501,0.029135605691099,0.0111866432667014,0.00117060702969664
0.0206629830808685,0.0258799489125631,0.00910138660371044,0.00108546500985691
0.0274896632224686,0.0322586188756879,0.00812366248860317,0.000872808561331293
0.0300442306751248,0.0297972142424089,0.00574630539220265,0.00087628560852931
0.0201459722744891,0.0238000419219812,0.00590988758292025,0.000911238942488921
0.0186701862760274,0.0263346856341601,0.00788144636594099,0.000915521485867667
0.0188455675291752,0.0297502164332668,0.00761484516630164,0.000923474171000104
0.0195797405526885,0.0261953977263963,0.00623467580090927,0.000840816908533524
0.0193049579248316,0.0275412439029087,0.007160215537715,0.000843136654800404
0.0270078028583163,0.0360579146984343,0.00773072705370582,0.000887613847152381
0.0290101143734985,0.0247630995209549,0.00569375656196196,0.000988570906030714
0.0348262164698313,0.0270426445771475,0.00636580448016487,0.0010522691096578
0.0427846862413569,0.0319754472807939,0.00718657261921663,0.000808302758587948
0.0305756242922213,0.0269982541727873,0.00690920479446607,0.000845527406192663
0.0341774763212178,0.0331171085571526,0.00930844661288379,0.000969835555230935
0.0201519723716325,0.0222797009810576,0.00684639703599286,0.00108558593418411
0.0191262833909919,0.0249459420855839,0.00473579506560569,0.00102747989695589
0.0205822861411453,0.0290720278448168,0.00613579675769126,0.00105035024242471
0.0207800581449218,0.0281875804442523,0.00648724162165534,0.00102472102568272
0.0236403985438106,0.0257705156519451,0.00622215188220948,0.00107438123622387
0.0259480763721155,0.0241047666735896,0.00413055036024563,0.00100399674506419
0.027083151270263,0.0210581060696459,0.00514227215561122,0.000800133858524406
0.0184861835880592,0.0252859815264904,0.00724447233887858,0.000962845364022355
0.0195365839689806,0.0287085738930519,0.00685643416092152,0.00100498138640391
0.0202843544673367,0.0329448259558171,0.00952346419422228,0.000773471734325551
0.0222318022437068,0.0243392581909396,0.00671179848693378,0.00109180565765127
0.0258414944277418,0.0269450228372259,0.00864304981157373,0.00102076790006521
0.0192323613337401,0.0208772503762158,0.00694711639985604,0.000917968655103925
0.0271621559101494,0.0218209458133631,0.00845167854246789,0.000924513523156521
0.0243132802245474,0.0208203416716125,0.00471508658483529,0.00107241712105674
0.0260064784384182,0.0235340073468599,0.00587571045114332,0.00096111534658524
0.0334614222808009,0.021716903301839,0.00778310660994785,0.000839850428499381
0.0239322682722552,0.02463988343655,0.00866199884983842,0.000833527588399389
0.0211481032820224,0.021665846075667,0.0061198081279811,0.000840365835872907
0.0144394760822648,0.0201613752146117,0.00681759199212948,0.000860323203749945
0.016571382605148,0.0285211006112374,0.00749476257061689,0.000902148284982846
0.0137091773970579,0.0270742037384817,0.00555354513089532,0.000769771402695347
0.0163661542231398,0.0215353075107147,0.00572519208731887,0.000714472011866512
0.0145894798354755,0.0225765260070943,0.00578569338358936,0.000690031451256906
0.0169160130613489,0.0176172785369059,0.00532449191447561,0.000844417786267365
0.0277948214587026,0.0367078670160516,0.0035462097069685,0.000656192245346141
0.0353302517040489,0.0391067335882169,0.00455940851448645,0.000770494196068546
0.0274857178327569,0.0452698042864697,0.00465379318750665,0.000690705617402033
0.0299547016561672,0.0551355838604667,0.00567951314395286,0.000859272351162376
0.0292288948328283,0.0435426517819895,0.00392428174388039,0.000687135095367491
0.0269624320773646,0.0404078683095177,0.00379138643116424,0.000663099434266602
0.0258360648071761,0.0509219855400813,0.00478689121609376,0.000812682039579631
0.0301696370274869,0.043479032173734,0.0052627777754593,0.000914128374372735
0.0280746790869445,0.0425953971963594,0.00448116179317203,0.000924874022967513
0.032209262362833,0.0459681826004265,0.00441787401410807,0.000818256549728667
0.0259047274836874,0.052447886715917,0.00460389330119297,0.000621550975761155
0.0274147560612788,0.0433903108127876,0.00361601377254837,0.000691437660220341
0.0326476536303467,0.041679647141615,0.0047876508522552,0.000860041277238139
0.0300052939582044,0.0448291734113405,0.00511130027547439,0.000828105590568872
0.0301765410948678,0.0421427360854492,0.00435341630364304,0.000890377043193721
0.0326865300246802,0.0510451421485517,0.00461844317450523,0.000709738159970685
0.0330609935859871,0.0487568963096404,0.004041984174291,0.00075476254342844
0.0342908372848336,0.0543154169097075,0.00443784068944067,0.000760366471752349
0.0365923209231596,0.0400252743789542,0.00435607790005588,0.00209547297528813
0.0331126002282142,0.052668793991955,0.00683126398571275,0.0012946880570554
0.0334810703838396,0.0689592820110837,0.00665516605790677,0.01120061768881
0.0351332604243618,0.0935895590315503,0.00885672611132375,0.0171084480323985
0.0355643178704604,0.0782423630157013,0.00721187769390933,0.0151049893997832
0.0259791513718336,0.102091055118951,0.00707765063698062,0.0130005800478473
0.0343448086176301,0.0994539182268616,0.00742826045085219,0.0112137699579878
0.0299698964453898,0.0839406523305046,0.00583066785157791,0.00660690181168079
0.0334363272962565,0.088963488311736,0.00714968692870839,0.0118336478132109
0.0285822321166285,0.0788860933099544,0.00705481492794483,0.011161423567868
0.0373844827352037,0.0871872294516233,0.00730728375793718,0.0134800365277685
0.0266623014607413,0.0782068081926403,0.0056619163409913,0.0137748792112927
0.0283677863950291,0.090587434506156,0.00627998490874012,0.0136337843554983
0.0294724328854875,0.0802975819446509,0.0066340713574459,0.013781390286642
0.0361117301722008,0.0728819347226872,0.00619974900721041,0.0144606444873769
0.026090971927744,0.0887167740307301,0.00660861842032163,0.0075403991164688
0.0258816132187619,0.10743755278561,0.00824416640615055,0.0126016062333625
0.0329604342707916,0.0666102778626819,0.00613956953598473,0.00474213614263917
0.0342214851078304,0.0608813958171585,0.00480373166376155,0.00890203046670299
0.0330925748461034,0.06996772418666,0.0079366173675041,0.0132974191424298
0.0281333742616232,0.0443960026883104,0.00520763385667148,0.0101633416396949
0.0281874034947844,0.0507111069054967,0.00453461470182673,0.00694272083455064
0.0317912656014924,0.061161624937075,0.0054318631603475,0.0130323667951118
0.0267157383608496,0.068378063630432,0.00522010065715008,0.0100760762503885
0.030028162312046,0.0567374777519796,0.00599170022580894,0.00900317640853299
0.0235229667320192,0.0554603947413754,0.0059561043895389,0.0111284764610326
0.0362280444374008,0.0594455420969622,0.00672892342880571,0.011855764473538
0.0297407921332651,0.0551314258080149,0.00563207705817038,0.00772836813808123
0.0232158539314383,0.0479116856540032,0.00480913806004195,0.0100276797317991
0.0350871578609112,0.0618794494876025,0.00722973580361969,0.0115236214355228
0.0302153962562297,0.0548474426117053,0.00600922333128887,0.0124566067131743
0.0348429420138125,0.0660311669283536,0.00581801954198336,0.0036188383356887
0.0249468560408612,0.0479251414682323,0.0042709606638802,0.012156604358997
0.0282101172876141,0.0568164440342674,0.00626398275253181,0.00419691548816268
0.0279886228766833,0.0606523527508827,0.00407770453986739,0.0115810988509935
0.0297976941944918,0.0565330078220631,0.00599106283656093,0.00104656779105443
0.0260728488265182,0.0517933493725544,0.00426976607728951,0.0105741795921252
0.034914294972042,0.0643732566980506,0.00651583899597581,0.00145365440854667
0.0284015742014971,0.0629597129973227,0.00494122843150458,0.00222757746202878
0.0299271556030841,0.0576165822047654,0.00558739458190307,0.0105503732164121
0.0273983877522156,0.0570920339548748,0.00371914887555433,0.011046879878487
0.0268074795967411,0.0643419440788043,0.00449332944484665,0.0111972251360724
0.0260849593773389,0.097219812373099,0.0135181049319166,0.00167063237370021
0.031243128254697,0.0613777185699449,0.012134570699515,0.00167288427901477
0.0279452683419324,0.092013450152654,0.0129538589586751,0.00164373879390514
0.0271204005484171,0.0876774703734023,0.0132179077426388,0.00196101921006036
0.0315788317312581,0.0657096510631471,0.0117098492145484,0.00184686501467803
0.0323613822360163,0.0600625783133318,0.0102737989671816,0.00178643458840557
0.0244506818601223,0.0621014582504971,0.0122782262900825,0.00149641384169058
0.0314302510510842,0.0744430139082536,0.0149590998185543,0.00151290884930165
0.0266455451079456,0.0780747516071635,0.0105840723619585,0.00145373880797051
0.0319362658515538,0.0828872932534845,0.0141237112977208,0.00199402298896689
0.0284413823468509,0.0855567355354067,0.0114243188143312,0.00170280944917107
0.0322859861554919,0.1027438928948,0.0152329485488894,0.00229204206701448
0.0283393403813875,0.0825955221660407,0.01190194749666,0.0019188128387699
0.0410765848372458,0.082053554289575,0.0149402111994219,0.00199085897624567
0.0402816682800658,0.104463589346386,0.0144520017819466,0.00241216840695528
0.0383613981247525,0.0925358995537638,0.0164374968496691,0.00218030124977976
0.0388062374168874,0.0748161551735654,0.0135996962370247,0.00177711716850491
0.0362719609194734,0.0719179085338345,0.0113990352983965,0.00201963372040466
0.0359320893777874,0.0754115334343564,0.0111346856478314,0.00173058170114805
0.0340666516357812,0.0679516782891547,0.01125252388982,0.00193622814263567
0.027390651557838,0.0941687292194697,0.0120525834832551,0.00180410788282837
0.0319506540609976,0.0668183819078994,0.0149713736984875,0.00198153948597791
0.0319916339495128,0.0630032740984267,0.0114804704922915,0.00165238871769337
0.0262420718360086,0.0893766429229322,0.0124623570577904,0.00153761473884726
0.0289173906744251,0.0583859982370575,0.0125993583353593,0.00175815267807688
0.0270091209145824,0.0831599989435098,0.0125068115961535,0.00194976430442269
0.0267153965754555,0.0773507010411507,0.0111784815798099,0.0017518091057036
0.0332841059391404,0.0830548331809161,0.0139026637323811,0.00181379162604579
0.0288858344755127,0.0724302930740163,0.0106569751340248,0.00143863750650754
0.0300754507427662,0.0636979534035886,0.00868066678808445,0.00126563984700414
0.0371546558624577,0.0794452990134933,0.011698521660405,0.00151848091029831
0.0358384484854548,0.0769741037250447,0.0105368984640215,0.00194714851356914
0.0310115007691679,0.0799482893602499,0.0136919030794053,0.00155733363828017
0.0244263385153631,0.0540585222152848,0.0111786201676577,0.00143061582050638
0.0248783626867019,0.0545461058640499,0.00977507899249654,0.00154240691347971
0.0279287776909323,0.0687409359499379,0.0100838167722339,0.00168933135028055
0.0362797797878612,0.0564912075432508,0.0107691793230491,0.00144041789437366
0.0293050606844814,0.0622604879266843,0.00817330365605921,0.00154403420849136
0.0264779269798833,0.07119100791156,0.0104756347645197,0.00141238805497932
0.0266734000899057,0.0833397552989185,0.0110665922310185,0.00184377787456
0.0347103659947502,0.0682019458877676,0.00911418075383178,0.00141827836173522
0.0295922894057258,0.0833900178458014,0.0100919259203095,0.0015089585514418
0.0275268747100361,0.0693854928957422,0.0106251562437949,0.001420608461564
0.0321315670988035,0.0652035124219513,0.00985644942829213,0.00126017527691678
0.0295951494799056,0.0642686219714034,0.0137073324724002,0.00178616755275648
0.0392775480663025,0.0859730976837454,0.0120496333220077,0.00205621017426429
0.0342014176499949,0.0739241661464088,0.00920093477269718,0.00120397933131183
0.0298697800674036,0.0781513926404206,0.0111976356211746,0.0016451946074637
0.0239133466969917,0.0965783130142002,0.0129858672499582,0.00164467282808285
0.0335811300576222,0.0878742723917407,0.0110345118504093,0.00158541494914483
0.0281398642361553,0.0684502169574822,0.00940388947046842,0.00145202421120021
0.0353274378616274,0.0806292624015607,0.0115986942980054,0.00180378971917623
0.0331705400278444,0.0920532048592527,0.0152003740423479,0.00139693971837424
0.0347200645289293,0.0671963704672547,0.00965334947900035,0.00150587265331478
0.0295045973978035,0.0832469794947979,0.0130386063434727,0.00175109504532899
0.036884576137709,0.0717418910576068,0.0128736366366481,0.00177611058917355
0.0337360253486644,0.0815945464076537,0.0100448638378033,0.00129016238475991
0.035954266830955,0.0742243629447559,0.0135072518381516,0.00154060016252105
0.0202392762756509,0.0519597654939578,0.0128134264225151,0.00120626787256855
0.0328434193046559,0.0806419195327296,0.0123550670685973,0.001393428964846
0.0508842909357993,0.0473520087337376,0.0221794579546677,0.0174468125451147
0.0382648346163634,0.048396352108564,0.0226654444659648,0.02519299363786
0.0412071436785496,0.0572224191642438,0.0208149530116042,0.0145508842090654
0.0430086888587512,0.0535351316566624,0.0203138959959948,0.0156939578630201
0.0425458510294771,0.0556739167822411,0.0210405511174351,0.0295748202211189
0.0375783112772232,0.0524588091301461,0.0206201021731199,0.0173138942182259
0.0435561787378092,0.0497470594883074,0.0194182067409459,0.0136121253699012
0.0396168119731999,0.0446432785329748,0.0220219930296955,0.0253279788824349
0.0438042605431726,0.057081018446365,0.0188756968914253,0.0226677207801551
0.0412097470782408,0.0520045884125837,0.0242263890750334,0.0192354291279956
0.038337038005955,0.047804110448755,0.0172501893419258,0.0292439030260717
0.0458992830123963,0.036434785262084,0.0206453608729787,0.0223858539504241
0.0441919555587864,0.0478035160042219,0.0179258197240787,0.0189877814427833
0.0484894063421151,0.0444958134629313,0.0182929865687429,0.0221454125589957
0.0557285986288155,0.0561113030532317,0.0226142766802695,0.0202376263294303
0.0409819251587608,0.0533027184078832,0.0205394826012643,0.0197897389187714
0.0439126302901018,0.0507120993424501,0.017088998939126,0.0274771225825712
0.0429439685441507,0.0470631150123877,0.0168815452094643,0.0166033645844983
0.0326378462603932,0.0481181672906624,0.0193073519144853,0.0183278107340638
0.0423818102388177,0.0587779686604159,0.0171548498215592,0.0199741901127433
0.0415841336241599,0.0591143139344673,0.0216052117534127,0.0178857001645727
0.0500634428139328,0.0444176937172497,0.0173504796404281,0.0154893735306682
0.0373624194962091,0.0398486232640421,0.0178815789634298,0.0282368907583869
0.0329031412803284,0.0423888551627009,0.0250909786713308,0.0231538722187868
0.0421552635201841,0.0451354676685112,0.0232983427710626,0.0154878222719527
0.0418574513373049,0.048594728747778,0.0278130184615657,0.0234300457601081
0.0458685499135018,0.0416954897911884,0.0194369955358428,0.0136743703155218
0.0347265324793892,0.0476877199558055,0.0255134504900187,0.0202053482792382
0.0326943533319252,0.0431095642417272,0.0165159139202577,0.0162756513842295
0.0367142713292259,0.0310513874813945,0.0203107563810835,0.0206132733500327
0.033129277389767,0.0445537279143984,0.021808759464071,0.0243552573659298
0.0397647349722438,0.0480234892492265,0.0175880548838849,0.0234101941738607
0.0400730500423503,0.0537664791427739,0.0229519404774511,0.0181701067621803
0.0343820670189252,0.0439144954126949,0.019195420198644,0.0184109081268418
0.0302404553946038,0.0562454860437771,0.0206610557072837,0.014616718121084
0.0330053860095019,0.0456603334501305,0.0184570156614214,0.0177933893644591
0.046605870813476,0.0476194268704738,0.0173736454488208,0.0228551035415696
0.0449056684448428,0.0547005284555397,0.0215005994509499,0.0267886619459015
0.0410271664103804,0.0641804919700382,0.0282091388675311,0.0213766009565364
0.0468460133123928,0.043893526176947,0.0237864864854505,0.0126113595548089
0.0682734541279262,0.0586118267944868,0.016664272398643,0.0201022837537837
0.0378966593808614,0.0451229855225637,0.0213683148179399,0.0205274357261942
0.0388203941399368,0.051960998264479,0.0147632522497241,0.037749221511181
0.0344870127539209,0.0449727572753964,0.0171948033086412,0.0323327812512255
0.0470836328233785,0.036880569541253,0.0223040969067338,0.021798029052137
0.0396461886047012,0.0398943926967028,0.0264114902609809,0.0193355833453953
0.0397469866816151,0.0525095550280898,0.0228952518996587,0.0185008450269244
0.0456428678636244,0.0560212335276224,0.0235191296351776,0.0160748498720867
0.0487333640089799,0.0663446928812296,0.0233305676323569,0.0263197744686973
0.0386615773165532,0.0679999551347946,0.0210577067482056,0.019333202478959
0.0388322728070993,0.0502821775528035,0.0175786981616816,0.0173176938524611
0.0341534848599901,0.0503908536751297,0.0192126525156591,0.0187505556869444
0.0494185178791131,0.0506348868848766,0.0170158108261399,0.0166203153799095
0.0386824692775964,0.0485891813356706,0.0234256884510075,0.0234944854800151
0.0397507346457799,0.0423618370360898,0.0172945148712476,0.0224868259567091
0.0414332057433485,0.0556817972989844,0.0190642509407455,0.0227980567437997
0.0499493871859169,0.0559104645664427,0.0157171997546992,0.0230669714932919
0.0440851171315692,0.0479215828389209,0.0164307570781443,0.0200980133250138
0.041311056227091,0.0524570455954127,0.0243061949891681,0.0235800809271859
0.0417359485642058,0.0479282970867576,0.0208090268171018,0.0205938309543989
0.0128541145559933,0.0358396687813373,0.00781557118071669,0.0104317216859674
0.0152301593295054,0.0382081880774707,0.00859088877747407,0.00780768478312522
0.0136652530519264,0.0328443089157555,0.00985967016108234,0.0115487122067295
0.0131504294397443,0.0345317054182481,0.00755538326558438,0.00820413034894326
0.0131647098197095,0.0337268254741583,0.0104586180878253,0.00724661272117309
0.0122281976459022,0.0326788176907877,0.00819609796168034,0.0100219802458759
0.0174648769053955,0.033844178094647,0.0084284609603513,0.0102063323820076
0.0162300697629807,0.0384341918979356,0.009367645247923,0.00814868438727707
0.0115208322559339,0.0330612222941929,0.00735798397284602,0.0102965805686385
0.014022793258232,0.0389299430386849,0.00952940853991767,0.00480024000502517
0.0155575402520261,0.0331671702112099,0.00915363563478262,0.00547884380036655
0.0142218900559253,0.0277232649414254,0.00839260337480264,0.00864939763125921
0.0149526932936696,0.0281860599375976,0.00936493524149255,0.00592427183499534
0.0127812357296705,0.0321277797724575,0.00792246604637137,0.0118747301116346
0.011311371039297,0.0292233734144351,0.00934455130978128,0.0117000067461675
0.0160360016688855,0.0330250011878619,0.00737289285738128,0.0111460945596207
0.0137359484153536,0.0303511420641811,0.0102250995460829,0.00752457122115244
0.0133209932661672,0.0426188797037161,0.00841821890446904,0.012046948853253
0.0128732094674484,0.0293982655100927,0.007094639953718,0.0101063267346262
0.0122423436550569,0.0303434851823871,0.00739551556307402,0.0120252420792786
0.012430108181995,0.0372274239046416,0.0078357839180802,0.00976112193462702
0.0153121228066479,0.0304616173436144,0.00866197180935298,0.00661416922225574
0.0122751749370837,0.0356442950540883,0.00847337652000627,0.00445534929282936
0.0109511641227145,0.0341687031564672,0.00832959856484197,0.0077037163989603
0.0128065709671352,0.0330028351525741,0.0101345408612446,0.00950439055538213
0.0115623651532983,0.0331725258131206,0.00871555384708387,0.00860740251319368
0.0186907810105388,0.038251412604745,0.00920142720674896,0.0151541914407967
0.0136374194153785,0.0270593296532188,0.00975468257284026,0.0121280275428061
0.0147263278151739,0.0400242123482287,0.00803964344763291,0.00499457531230933
0.0141734158001588,0.0317111956178456,0.00880056405401167,0.014854276425469
0.0110803279869468,0.0269920130505251,0.00757469673490752,0.0109823699352214
0.0135940002509743,0.0265171255078615,0.00869536421816697,0.00761651158706632
0.0118303644256696,0.0296189493995873,0.00759909929773874,0.0118189243767667
0.0115269444009869,0.02869829142526,0.00801856352273506,0.00652031205311678
0.0126416344982978,0.0339318676586132,0.00756820150079176,0.00631588240030551
0.0143969084553914,0.03464626720846,0.00735081781370088,0.0103949769981934
0.0129812875614308,0.0342768724395132,0.00699167361291609,0.00886882882452103
0.010613294140858,0.0374436045002138,0.00742909327624111,0.00889334726282412
0.0117242912137769,0.037915274926646,0.00942759400106268,0.0114400591851412
0.0105534514708814,0.0360626012989299,0.009065352367824,0.0136059047193442
0.0160521040850552,0.0347860240033266,0.00827255227880513,0.010259875497137
0.011367295047732,0.0306095871843453,0.00703400280490038,0.0106040643385523
0.0117204094972886,0.0365773883047797,0.00744796064701461,0.00756397819520111
0.0119882049762626,0.0299528324905635,0.00893433703427718,0.00849999523939789
0.0125980869153153,0.0304531291034031,0.0069784088708697,0.00936876872292557
0.01378524593227,0.0251447020220062,0.00841932821607931,0.006615206572457
0.0115325504763058,0.0273617311847299,0.00892825192923852,0.0109550637698767
0.0112612884921993,0.0350116473254281,0.00653435465711945,0.00791415975602651
0.0146706038958894,0.032657721212639,0.00859394079586707,0.00710324953234497
0.014859637361774,0.0403576071235079,0.00689387858591015,0.0105641113815673
0.0125889413989308,0.0349799079842569,0.00859442157018194,0.00958356642508559
0.0109641581933403,0.0313788724051312,0.00783980595977758,0.00586800695120733
0.0102412001654861,0.0334819155052526,0.00746880522226394,0.0103986905154721
0.0112482816477462,0.0424622728727814,0.00699582942079341,0.0102392780455243
0.0125779084359959,0.0379303531198711,0.00738131883158255,0.00846729709683505
0.0118595479920731,0.0313885390575229,0.00994707279398898,0.0106815882569932
0.012583748980461,0.0298711559631223,0.00817354169853565,0.00559181245391979
0.0130212096220459,0.0226195848730281,0.00681904411810608,0.01254685890615
0.0118643334976911,0.028047245387741,0.0081095150475323,0.00837895301133784
0.0136569873142829,0.0226954404288552,0.00901742362728018,0.0107025855198328
0.0378432631178705,0.0427226946131957,0.008918568275913,0.00741745233823807
0.0379443937928909,0.035331046482274,0.00743171979360884,0.00842334969044079
0.0422594203721232,0.0385203488759615,0.00756068717547172,0.00867670027522596
0.04059857786237,0.0418274612873295,0.00961738615422477,0.00790373184558561
0.0424540647825166,0.0530426783600668,0.00783921140625839,0.00803177154418071
0.0474499788354503,0.0404865308379747,0.0100315383042814,0.00704001162596711
0.0359175028775009,0.044019254653329,0.00917435634020396,0.00803571515900867
0.0458717189165765,0.0381745227587072,0.00801460042747063,0.00637508629563947
0.03647260942109,0.0388476273377342,0.00877139143797186,0.00863485192541298
0.0278356714564608,0.0376989844009076,0.00911489835420651,0.00850349178040626
0.0399367294372934,0.0462327844490156,0.00899349392152035,0.00692386531933749
0.0415329334572151,0.0395087638639587,0.0095131408422316,0.00753642695573234
0.0339021390750029,0.0400413118231331,0.00828061948720659,0.0102826646043625
0.0395191943058835,0.0435329379754002,0.00771431983594788,0.00591970517731541
0.031522444716669,0.0410298984625498,0.0113753315439,0.011424411492412
0.0426232787402207,0.0391199586721214,0.00808640089084186,0.00874509212169719
0.0466628126970321,0.0403190329102083,0.00796967480494621,0.00724008072867736
0.0384524404947623,0.0364274587053533,0.00761485308840255,0.00913999495368481
0.0384516058784217,0.0445874928735469,0.00800885838576873,0.00761155940511437
0.0400072431660547,0.037210283171771,0.00837767387239801,0.0109588650341125
0.040874777114509,0.0397360178348164,0.00689178447288641,0.00854600124323163
0.0452012583012674,0.0384667715163238,0.0069158467694973,0.0072066200715922
0.0433740641733014,0.0393393589624208,0.00691688694439062,0.00755833908762724
0.0376565961262382,0.0390510310302796,0.00803497616043579,0.00627880670734923
0.0370964426595331,0.0462799712466057,0.00752126729128094,0.00913871477386113
0.0372504687379568,0.0423022725558127,0.00840161755523412,0.00803100966178289
0.0392274095605466,0.0438938443910287,0.00828776394892912,0.00748490227288905
0.0412890961579637,0.0473242031329596,0.00696923699710452,0.00976686891017385
0.0475452674082804,0.036565306087811,0.0085018888710889,0.00738494187297114
0.0372183999834094,0.0552418492233006,0.00832044460460082,0.00797853148022485
0.0421944415689416,0.0463129342331639,0.00786082488226098,0.00682755483458107
0.0319107954655179,0.0420029222708496,0.00650224461294113,0.00916726580148518
0.0450732287598595,0.0464558756884783,0.00870402842353326,0.00752191772334108
0.0359449359938299,0.0432167724121788,0.00882708267394943,0.00758426635613985
0.0471355292855832,0.0379789228204093,0.00626954966761449,0.00807256658532604
0.0271397451970229,0.032493764169069,0.0094802422087181,0.0104554891098435
0.0380516675411877,0.0407513910751448,0.00766891216770054,0.0062275644223411
0.040471554999047,0.0358691780774198,0.00705504535883058,0.0102211773873835
0.0422416012565675,0.0362929933664368,0.00751021472513725,0.00754609071336267
0.0374161268573964,0.0365002301801689,0.00601986433368517,0.00885881433404372
0.048550250904146,0.0508070040672254,0.0063835455365299,0.00931879386787104
0.0417132844903989,0.0392013320360963,0.00479984507003697,0.00703530651455536
0.0398583191021738,0.0418366504594229,0.00709162767019813,0.00695615093207621
0.0289073305824878,0.0339920254683029,0.00730797169151868,0.00914003101087551
0.039887033086023,0.0336800682020919,0.0057995989817442,0.00690761352688913
0.0387007152096057,0.0449463304129659,0.00473045342222523,0.0085680426902766
0.0379364824535064,0.0372645267264521,0.00728319830185571,0.0075406012690051
0.0441161330716374,0.0345772494441939,0.00495996169604667,0.00906640323618619
0.034308508361809,0.0366885979615965,0.00709724366292131,0.00804450018835369
0.04275716345643,0.0375432791198959,0.00480894506796598,0.00872580135445953
0.0327121664653609,0.0401090914615669,0.00580133656878603,0.00773916161903076
0.0375220505119881,0.0441862248051949,0.00540149343525096,0.00947056675351235
0.0367321914131643,0.0447149944082821,0.00490688217041274,0.00603246327442579
0.0327075288160394,0.0389415835418194,0.00584544058441528,0.0119604970517606
0.0331751460575211,0.0341671348334547,0.00366985723211201,0.00801858397879025
0.038058656948069,0.051818190715872,0.00924223565788526,0.00989696687925389
0.0400641688507177,0.0355908252913334,0.00731741630298428,0.00753312062646503
0.0428518370221308,0.0321894553596366,0.00564784000460224,0.00797216058184808
0.0406304666068273,0.0436993851381343,0.00879641467626035,0.0078024941591571
0.0406619833560174,0.0457032140643433,0.0116306850829184,0.0103446553479133
0.0320709850323681,0.0529265805746494,0.00852970491311563,0.00164900922898074
0.0394756033665239,0.0498363623304945,0.00928929747175512,0.00144936376865544
0.0406079881765214,0.0492939426874539,0.00838944467198895,0.00147403989677893
0.0336096621712271,0.0496212904554291,0.00760954830138364,0.00185661660880556
0.0422794579677094,0.0472604232303038,0.00858017824119246,0.00133667286509184
0.0305089407769501,0.0529047424194286,0.00715622519276091,0.00135729481587443
0.0293232349186402,0.0454561431638477,0.00802616982381626,0.00160481253002657
0.0347721810057884,0.0455724631271818,0.00716120235901765,0.00164788786556592
0.0272172194139841,0.0460594300730832,0.00627838321745606,0.00129209806843264
0.0321513908031091,0.0635159926432294,0.00663128877411463,0.00190237285761087
0.0403348107314967,0.0488568514182491,0.00685647138786012,0.00174672422195026
0.0334747782885785,0.054264532740923,0.00592425128280399,0.00165092621723953
0.0370024768528963,0.0476424070072963,0.0061449482201214,0.00140739428984542
0.0398409792525605,0.0519015746556383,0.00788980849091676,0.00167801596998096
0.0339594540761431,0.0509096402120315,0.00812347700965665,0.00146038215134805
0.0407925693474237,0.0560772878572287,0.00705893292067785,0.00143782828686937
0.0439650832163331,0.0515876585231475,0.00832601576249962,0.00180273939230562
0.0391458953026125,0.0499523527487077,0.00779942928567702,0.00176683317801059
0.0289487387230578,0.049879678652839,0.00839792805766941,0.00136281867825284
0.051338534153173,0.0535444734803976,0.0081254624374885,0.00178960148478065
0.0332053251565142,0.0636717924617017,0.00842143033912775,0.00138449083037805
0.0332400290606858,0.050576090845716,0.00722569840005684,0.0013257420566957
0.0433692380852588,0.0684078779760488,0.00696964411723482,0.00138435608980505
0.0352636584356954,0.0435179046428318,0.00667192528809291,0.00131929577821153
0.0456097169946556,0.0605345526317385,0.00833204204355723,0.00190972367644427
0.0403341310859074,0.0574932972487906,0.00934210183150214,0.00129656531892698
0.042378484604588,0.0495291764258858,0.00777055739980579,0.00160287567453393
0.0372154491838894,0.0468389554138258,0.00710177085434308,0.00147874952320796
0.0335433952465588,0.0567453066274275,0.00818099491467709,0.00153473758575815
0.0323175475102223,0.0483668357075598,0.00784029650894773,0.00135750986211014
0.0399416560007038,0.0542441145527962,0.00902792061077615,0.00150503305136804
0.0307866976648698,0.049697631849516,0.0088285762302916,0.0013183440415467
0.0375902042458443,0.0525421380729317,0.00989882350800531,0.00192268385559217
0.0365419341800526,0.0672767998721355,0.00742778297106505,0.00137962407293847
0.0344963701876739,0.0356620114613487,0.00964751657794279,0.0017107952046632
0.0341053965298716,0.0435282335789035,0.0083844893618685,0.00164128734093615
0.0380641114005076,0.0709522044741753,0.00685960342439543,0.00117899073801903
0.0335670137154697,0.0554027007373161,0.00637043926755163,0.00138705446041438
0.0425399741146572,0.0488683761415502,0.00694075307977264,0.00120925670024041
0.0294578485953633,0.04426494356296,0.00662587409721253,0.0012942767599464
0.0331349042235509,0.0466617565779735,0.00660949886672199,0.00160212523132642
0.0365765133138695,0.0453069286211328,0.00535327853394835,0.00147423745713323
0.028730853799311,0.0355851918638365,0.00627303274516378,0.00107506634429744
0.0312398090125297,0.0552036921683271,0.00471102114483234,0.00147040862838357
0.0405577494376825,0.0508777505524783,0.00603173219831286,0.00144456792051808
0.0298598625462126,0.0534552718466203,0.00603003276953983,0.00175362014658663
0.0311824377471785,0.049716948390173,0.00672220626060443,0.00132035172021142
0.0356000523592717,0.0492996275147504,0.00525801869064569,0.00121907547443615
0.0387922449470975,0.058124762497841,0.00712476718383708,0.00148603412623359
0.0400400678322588,0.0552691706693327,0.00730158380784743,0.00210901564988946
0.0228037656297175,0.0465171638809971,0.00695757059953577,0.00165688186572898
0.0297749697197513,0.0539808755830448,0.00717826753918343,0.00137829675807644
0.0329398610823125,0.044011207152764,0.00860809603689355,0.00141230580837489
0.0281572610736393,0.052483201767467,0.00648290680941704,0.00178522255996864
0.0364260506224593,0.0551666370721216,0.00656315827973266,0.00143676068364022
0.0260879956900399,0.0521855146432885,0.00767665298383552,0.00117247881983065
0.0369894593613734,0.0407871268196564,0.0078091615129433,0.00147556655190246
0.0323609580840166,0.0468017489824317,0.00610311568840342,0.00184913624913678
0.0333560666951447,0.0481821092003503,0.00555017813338909,0.00156119827402466
0.0281785434203321,0.0475451077941518,0.00573836717047412,0.001320626698799
0.0281620877736187,0.026077431954225,0.0110009546955975,0.00241593891290166
0.0389602529442805,0.0279871233876091,0.00823852645595124,0.00280303358148201
0.034280079044465,0.0256261444126989,0.0091611724977062,0.00220259991328126
0.0318565371310439,0.02130993503958,0.0107611684708964,0.00277219775351675
0.0357546521140774,0.0233869401401484,0.00805946162090791,0.00227096270452237
0.0311705840080812,0.0199981566914087,0.00954618393454102,0.00185591651005071
0.0388015530080202,0.0285911603284611,0.00940383405413856,0.00211765308277184
0.0323470059798897,0.0235576017085212,0.0102999214253369,0.00195710491414349
0.0292837880252749,0.0249805909372115,0.00839473173208266,0.00221722018642313
0.0358556962063,0.0256131614809058,0.0100533776677455,0.00201562122753771
0.038693797307534,0.0294362666092405,0.0100257199299295,0.00282443318638976
0.0309959600586342,0.021917513627503,0.00901949340442454,0.00222859611870207
0.0405357924602279,0.0298825840760371,0.0108474871105511,0.00287497060605213
0.0257762769536326,0.023509985469344,0.0122456504564989,0.00259131778221889
0.0451119836847039,0.0290599825586787,0.0117145369297809,0.00239606637519263
0.0339005310183088,0.018631169909792,0.00952220052738112,0.00302255484476194
0.0231483123204536,0.021349190483075,0.0093195135676181,0.00276419928176915
0.0375230825330976,0.0250066430505955,0.011440243205563,0.00400154378308932
0.0282637095724098,0.0228942599755273,0.00803250179484127,0.00280542220080867
0.0382165384804961,0.0213922481595574,0.00839467264020763,0.00272472968580718
0.0422489708627725,0.0285187661238967,0.0112029471662389,0.00239131992058263
0.0330213234837194,0.0264496853494791,0.0120389358433215,0.0025620529684984
0.0346497941898803,0.0352393346628502,0.0113875839618023,0.00221494841759856
0.0301757796514929,0.0234473438209939,0.00952559969928995,0.00260236300502802
0.0487695229051452,0.0246411295502323,0.0107511714205156,0.00312529087297074
0.0389595089329246,0.0219907359274055,0.00984353941411997,0.00246223691557231
0.0387095278815449,0.024935069191748,0.0103656022017021,0.00196560499500686
0.0314062545179842,0.0227387244718206,0.00870370471661614,0.00171994916394661
0.0308839253891395,0.0188629269762391,0.00802808527098857,0.00209125660923232
0.0316745709206348,0.0227164012865131,0.0100419152016148,0.00198150733725423
0.0368973088284315,0.0237706557809263,0.010271962627371,0.00227911557077561
0.0283255828825581,0.0212610795062749,0.0113642416521276,0.00207192969675974
0.0317473373183959,0.0252163892943492,0.0102445042935198,0.00209155830063416
0.0365011171562885,0.0225361126031453,0.00905337622770287,0.00265284379148403
0.0318408659304281,0.0197687385524714,0.00963787405721368,0.00279741676132411
0.0304926176269559,0.0188848365366649,0.0108297565567327,0.00238785004720124
0.0272022548545007,0.023286140687211,0.00985952837069079,0.00240905252687289
0.0344001791501397,0.0217872749609304,0.00823141953194395,0.00199400909470819
0.0310030831341821,0.0219485096080698,0.0108863277653175,0.00214294649020314
0.0276750767289573,0.0226497144820618,0.00916736435248961,0.00210204772657832
0.0390822117541816,0.0197214744722077,0.00902018959535343,0.00258207809019646
0.0338814956570957,0.0191022784277739,0.01023358435598,0.00234120826649547
0.041991235878433,0.0226947275543145,0.0106508376555212,0.002799717270262
0.0398602792409067,0.0272211477048587,0.00999060013726354,0.00283271824383838
0.0291435967156875,0.0224587404501647,0.00878305338759985,0.00272473173264015
0.0282932033962603,0.0233037910343266,0.00803330864492279,0.00249775905723463
0.0352911052187681,0.0203370179247282,0.00977697097627188,0.00275373004084812
0.0274475825692192,0.0263268774313496,0.00887622722613036,0.00201045945771301
0.0332836945793728,0.0220589609407595,0.00809323961281426,0.00316678839264153
0.0329491162120866,0.0223182982861889,0.0107676554038116,0.00237692225382371
0.0300242406073221,0.0211097139236282,0.00921123936997165,0.00248619966095667
0.0279083042913705,0.0206629337341892,0.00954275015384627,0.00248072044720872
0.0437742907600462,0.0191018532249873,0.0116057186145317,0.00323015506894918
0.0328579538183092,0.0217835700921938,0.0100657752523207,0.00202165240435724
0.0222307579674951,0.0198580051864839,0.00804484081981382,0.00261390393376482
0.0380532059545773,0.030765380710421,0.00785530003069742,0.00271675328149024
0.0333002630641899,0.0202304920424488,0.008099243010822,0.00209400412092617
0.0289658381934315,0.0257768436601536,0.00958746018791284,0.00231510804539946
0.0302169571706822,0.0230142065310479,0.00875658226414207,0.00228320036855771
0.0480555319622838,0.0221467559550485,0.00851897010316978,0.00191949671170299
0.0318981470796498,0.037669135261013,0.00970714910661637,0.00273730823393521
0.0297550478466935,0.0456131996624239,0.00924332115951705,0.00282115094307844
0.0389941029875427,0.0431190147614512,0.0106735440305941,0.00367670158567784
0.0336196659014339,0.0565308316718993,0.00954586278343106,0.00350678916458459
0.0324203695835828,0.0359192628679447,0.00788862809083824,0.00396622859588048
0.0300984832599519,0.0468341237941656,0.00874694109330305,0.00256817299303174
0.028299172144016,0.0424417470606074,0.00686567974415956,0.00323312626549495
0.0323334368822434,0.0370111106001338,0.0114047157867344,0.00338751275575097
0.0400645781508147,0.0468124177990032,0.0111928802634312,0.00375482276040395
0.0330081851253314,0.0416855274432739,0.0112151876531312,0.00357683666222156
0.0264840935601762,0.0452248677978513,0.00692630594406114,0.00396587507748098
0.027286525622057,0.0453833148544139,0.0087428626088364,0.00431354451800434
0.0230204528208082,0.0390082526399865,0.00902181558065458,0.00242566916084001
0.0338321721774278,0.0378295023182539,0.0116369272807546,0.00286047609307804
0.0434219741379418,0.0423904368460401,0.0122558274759074,0.00334883441541201
0.0411136108297843,0.0428231978837951,0.00835327107469034,0.00302185515267138
0.034546856351626,0.0448917675127569,0.00896957499427741,0.00314470585436226
0.038077790445371,0.0441351466485648,0.00854809839660632,0.00336809033602449
0.0300018657049498,0.0418583218452477,0.00681327828250377,0.00264732986663897
0.0345112051579488,0.0478736223855186,0.0102439145633649,0.00363399840014137
0.033463097065513,0.0469630175816696,0.0106830676951126,0.00323089109122898
0.0385020427026903,0.0548562139521114,0.00804856400141662,0.00352808555773149
0.0274613723248411,0.0463029898033215,0.0134329025920399,0.00286136063657428
0.0293174433488653,0.0593029663607015,0.0113252946652609,0.00256214959784658
0.036850066759667,0.0476613881018445,0.0101004417220402,0.00329547363511502
0.0260883071279833,0.0452126680755375,0.00764282554944851,0.00464006407445669
0.0316778259075469,0.0397053712437074,0.0111554548058878,0.00361170949723206
0.03064122922832,0.0586209858984334,0.00924664157306718,0.00281319777868174
0.0356436921466805,0.0421279511844512,0.00951083205602149,0.00346491005105039
0.0299511097169046,0.0389702693304474,0.0116939253305749,0.00275750788062208
0.0263441576251938,0.0393027397550907,0.00891025540020621,0.00393698126739787
0.036941321238589,0.0452201677849964,0.00844428138111804,0.00355200768784748
0.0293127013404721,0.0462332340887307,0.00826838577565141,0.0036127968790486
0.0237862622555682,0.0439747071066518,0.00920275078680155,0.00314101022317896
0.0217225846535114,0.0414842020912668,0.0114676375446706,0.00379189295572694
0.0252859754861635,0.0437666233936473,0.00928590958980569,0.00306458452462409
0.0321932717658768,0.0475723852224966,0.010394625330022,0.00294660913486974
0.0310111669877552,0.0378054979875318,0.0100093133053011,0.00304849500426453
0.0247752783485018,0.0410501545197745,0.00795227693243002,0.0032759319137241
0.0329477185804955,0.0515717347626939,0.011046285593604,0.00340584922019986
0.0241090912104615,0.0562573897114257,0.0101427183998135,0.00409141487611045
0.0259445104138046,0.0417871091360794,0.0098329776099948,0.0043109802451408
0.0299707279976375,0.0368893086771004,0.0110911680180992,0.00417935755334546
0.0244327531443071,0.0455766286527898,0.00843655137777518,0.00286748442938454
0.0317808381329202,0.0413436212426408,0.00765375690118069,0.00334240121305467
0.0353724477201109,0.0405349530222266,0.00922331522813063,0.00397455850806678
0.0273852778031539,0.0343791960669746,0.00717430578068656,0.00265698590296713
0.0245791429613227,0.0413562651891873,0.00960897381436048,0.00340760443367154
0.0256312794222811,0.048363077386824,0.00983439623156819,0.00270311268069567
0.0304213116896332,0.0516913030439113,0.00801929671077038,0.00286204349143473
0.0272197978263563,0.0394423948260061,0.00684048753468929,0.00262464238903285
0.0350983314396963,0.0498822529713099,0.00669131120721733,0.00300822896794554
0.0267388089605316,0.0399042323968483,0.0097389133438395,0.0028644065492374
0.0314050310279631,0.0454466617577649,0.0108031401405042,0.00322488073504933
0.0253399346004023,0.0357154842964904,0.00732482189690382,0.0029526895268171
0.0311173713407477,0.0535374741157757,0.00893312316717198,0.00314044419975635
0.0292257566185987,0.0367351379104193,0.011363052846152,0.002981597996344
0.0229038629753461,0.0282325592035896,0.00725502333527343,0.00320730019727249
0.0321239988484607,0.0407263613074759,0.00829462841600167,0.00392671252327691
0.0283597185676556,0.0482139277958621,0.00770062023033616,0.00289045510309742
0.0338142625590036,0.0374800713288568,0.00533803401736943,0.00228544614627826
0.0454151894096204,0.0403177627809602,0.00570644126077971,0.00259153793468377
0.0405154839341663,0.0390475438946501,0.00561435354271882,0.00231865463405156
0.0403215857063819,0.0347916463939448,0.00575925915714388,0.00215575054649711
0.0387537895373795,0.0310686380640326,0.00569961784421105,0.00193965308996803
0.0365176505130547,0.0316111015757547,0.00532176669958537,0.00192441509427378
0.0343410323925685,0.0345568807123562,0.00703824945629027,0.00261167354330513
0.028426979344292,0.0338526806993048,0.00696445491782039,0.00231202260028877
0.037193922571461,0.0357055840767678,0.00648452110528622,0.00199497456127633
0.0347487233381856,0.0392844137486756,0.00504298480863658,0.00201605708798538
0.0420442498179059,0.0343016919499027,0.00514007773555847,0.00230740511969977
0.0397750023640156,0.0412881109670168,0.00630227778418025,0.00257907644486621
0.0406074066291942,0.0394016014096966,0.00696475791402246,0.00237204822817244
0.0383973042140211,0.0514963616511257,0.00646946392991447,0.0019308522903681
0.0331994206476768,0.0341994689148747,0.00518195817556848,0.0022695416681371
0.0355782995702254,0.0377105715394969,0.00685231951646593,0.00280747705704313
0.0426749209200381,0.0337448889330554,0.00635720907693343,0.00193470886885553
0.0390078776835687,0.0262560977078364,0.00602480487228538,0.00226808202254062
0.0334477163081919,0.0365514947067458,0.0053559029174865,0.00219201425993104
0.0349947997235452,0.0364143363126032,0.00637854247565465,0.00231039023196727
0.0410227271890868,0.0438084346118523,0.00561139159613691,0.00230791452791881
0.0343253893017701,0.0295908530515262,0.00602401241270651,0.00183199304866115
0.0467053300043391,0.0347352860155065,0.00640966777495004,0.00201192897821261
0.046166333467898,0.0373247145735197,0.00708008329585927,0.00249466158793903
0.0355011437916636,0.0372183270664472,0.00537064208856756,0.00201440975189413
0.0440630595305811,0.0376153981279009,0.00667165158057607,0.00225037132017639
0.0428542903831536,0.0418678178115151,0.00569557460869115,0.00233702923835568
0.0432222220452664,0.0346929771719901,0.00638830804373273,0.00194290680534681
0.042469854717916,0.0417536540780508,0.00547921099036997,0.00216322768969877
0.0434535855064473,0.0340291783684833,0.00638141620237154,0.00289686356131375
0.0342842834468202,0.0365017608374949,0.00633507448509247,0.00200280787323479
0.0401262617580266,0.0406554714642298,0.005066079171557,0.00220247423048262
0.0339909361652047,0.0335259321825859,0.00575711728695741,0.0026191760208083
0.0410900866013314,0.0381100947241592,0.00595875403405563,0.00210979139611871
0.0356473551186439,0.0458438013677934,0.00577159509711087,0.00201000031216244
0.0386057994899729,0.0401376865876397,0.00613982119390456,0.00252638810853774
0.0370203560835349,0.0424250442684295,0.00572532922789269,0.00204464289443513
0.0372701372058309,0.0435938118401249,0.00572753552098872,0.00199860817635702
0.0346900388771905,0.0354305384357892,0.00543032833316726,0.00223444144983961
0.0416329440137929,0.0407570259834222,0.00607660960845721,0.00217524356945348
0.0317581120307672,0.0395765988657725,0.00548297370606242,0.00238386530414259
0.0353638483818374,0.0417549139785052,0.00618408429793091,0.00218218296730688
0.0413547718153157,0.0364167703421746,0.00586752812740725,0.00224075429615813
0.0321106040300562,0.0424744069350033,0.00557255828880593,0.00171759058502652
0.039627514520045,0.045184650288063,0.00593010306370828,0.00227644705384116
0.0427829250354084,0.0451470027156267,0.00655651698553248,0.00211504441155114
0.0358215728804469,0.0348683049457455,0.00467882731112676,0.00204453057360405
0.0364454797403554,0.0373058058954574,0.00634449478760437,0.00198628518421714
0.0355260164732101,0.0321681084421502,0.00476143500653148,0.00211585882118347
0.0383956012488353,0.0431177550197554,0.00529635489242649,0.00203857565765304
0.0430568946553243,0.0324056797230755,0.00606375474494891,0.00238862976976203
0.0386050321483565,0.0385760973980949,0.00622020812136663,0.00224247892773908
0.0280639290726364,0.0460920576577557,0.00641238305555568,0.00232341476492134
0.0423636191797369,0.0385599137107904,0.00666655236525958,0.00181021293132297
0.033094145702734,0.0450418030781367,0.00566821257595054,0.00202994261218026
0.0363077972280666,0.0319057330504336,0.00561105188621581,0.00233557297789106
0.0404105296541184,0.0437553004334924,0.00571723208110028,0.00207617027156461
0.0367008921663938,0.031847367271022,0.00646179434452218,0.00212455031085492
0.0429810046151035,0.0277893091525951,0.00521854774472363,0.00233783877235521
0.0316494779569114,0.0345276675067098,0.00557698193731835,0.00253028443176152
0.0482170514010621,0.0580283263785925,0.0212078973245143,0.00902020849023467
0.0503784002037599,0.0590622914153528,0.0154818674441666,0.00755223428124288
0.0746268196890142,0.0534887948686172,0.018434752217858,0.0108748939031659
0.0819261876941036,0.0463313064242193,0.0171815179198622,0.00693288976703145
0.0542502586790475,0.0558926388629066,0.0162744634547097,0.0112881025758597
0.0634796430023118,0.0483432166469475,0.0172799871003436,0.00803993832316378
0.0709294406515635,0.053646014248852,0.0176044769575064,0.00937070678672464
0.0477259959591912,0.0512031759858956,0.0149063116786567,0.00947984898746604
0.0731241201475794,0.0586778051775122,0.0156545925848393,0.00951094982441509
0.0602843862142557,0.051957562739674,0.0173657860302606,0.00814691099800385
0.0747437828218356,0.0569074637731648,0.0158629438973659,0.00881144953805809
0.0720239397753273,0.0522165890465819,0.016446957348113,0.013721357293988
0.0761515470888351,0.0523927451551885,0.015138383186289,0.00909235476377166
0.0510744373172592,0.0593943741805621,0.016741652116786,0.00703235731545526
0.0534572821326338,0.0700130406222272,0.0179106881237098,0.0109232485959908
0.0613781215155465,0.0430182090479235,0.011433145823519,0.00774865264521501
0.0489293586014385,0.0465106483353119,0.014126994825049,0.00890152571008192
0.0760461386220239,0.0445152200130033,0.0152249183038911,0.0106943353575893
0.0588909842511517,0.0443690957842563,0.0163009903434997,0.00901313456146263
0.0536124992763021,0.0423511590068414,0.0159458817999092,0.0104279778794721
0.0616094502071957,0.0580069437454622,0.0184661586995008,0.00864066277544877
0.0644968883528211,0.048276775138324,0.0196471411396984,0.0103771994305349
0.0739996669560006,0.0447243955651484,0.0201544279104006,0.00888103607453047
0.0504006024538705,0.0524888535697181,0.0180089048886149,0.00742602617244717
0.0652086369819488,0.0544656543529994,0.0159529989154214,0.00773641012327775
0.0581457027602497,0.0705853238981682,0.0171462023493499,0.00922796992403957
0.0684376553759111,0.0506429791995324,0.015798010520894,0.0103547933333719
0.0736172766470474,0.0420005054061566,0.0159770477611168,0.00978103649858897
0.0621560188823991,0.046150224995657,0.0158674261040211,0.00819807130649852
0.0629503899179621,0.0524980095770657,0.014891331804939,0.00947620680383924
0.0621764721825707,0.0407245756623569,0.0152852827552074,0.00813608883369711
0.062475617236681,0.0529556991306668,0.0154832748866517,0.0110022394324365
0.0709294024630931,0.0489530539077615,0.0163528970727995,0.00868643339152289
0.0556258281769343,0.0481952672120967,0.0141512667954581,0.0103688083830715
0.0683509793401056,0.0538352086146134,0.0167523508150049,0.00615484813637187
0.0641020550895648,0.0425715519530748,0.0132357373172684,0.005799467290672
0.0634914024393022,0.0504830260256979,0.0172673227161686,0.00832475957255949
0.0676021183170555,0.0412765496961713,0.0146994179297151,0.0129497026963138
0.0633805966826912,0.0488173480280474,0.0148604327607725,0.0096407701058094
0.0664347158105554,0.0552339169675205,0.015221392828694,0.0123152794755105
0.0668616375881885,0.0474699050786666,0.0151940384903944,0.0103338017096954
0.0622907376009932,0.0504252717369405,0.0160069550048185,0.00827184767768215
0.058981645105702,0.0479122652287498,0.016936203492659,0.0106425837246476
0.0568247860687336,0.0429578097741181,0.0160145848228785,0.00747803251289424
0.066620047149057,0.0475141952470081,0.0130005797692963,0.0102692773488736
0.0619720306279775,0.0523942231850448,0.0174007112332463,0.0104318357204134
0.0488869679372082,0.0559730913872186,0.0156477255933391,0.00884487707200265
0.0557060475985079,0.0665736408125289,0.0157065935347492,0.0102931344625695
0.05585174042317,0.0413567129974053,0.0151798367333026,0.00863293534091046
0.056914738493779,0.0446021264761214,0.0178648599695668,0.00853426042389979
0.0466629762472003,0.0510143511536073,0.0179380215614079,0.0054378482207319
0.0752509721542828,0.0423745961988186,0.0192756021258781,0.00703615114613879
0.0608174928994793,0.043195460796685,0.01801139429817,0.00914265423715758
0.0677739031341377,0.0615074103159225,0.0149617850142699,0.00901291000612431
0.0560427513527441,0.048531755168687,0.0151909507992119,0.00833042705744385
0.0603506291085218,0.0518678542184297,0.0168895209726802,0.0092217407428947
0.0472332984721138,0.0494441800830715,0.018606426706135,0.00927721546405411
0.043764305307631,0.0516074628796789,0.0168732665492705,0.00753438067653334
0.0600703760761256,0.0442757390913558,0.0148247036997126,0.00853788456127698
0.0614776207235366,0.0610642525481727,0.0185014825709533,0.00988908364816401
0.0473920045268707,0.0895795716320481,0.0100439496023277,0.00213604456859826
0.0552998742843085,0.0615434628865868,0.0108783883186014,0.00218133167481837
0.0503807813805074,0.0664401905122333,0.0105523654064546,0.00202178115537865
0.0344691849194991,0.0624698563768756,0.00731545153146236,0.00163548255195557
0.0376762608966162,0.0621945997967539,0.00842405810124965,0.00114620972439739
0.045390057308204,0.0516237014027559,0.012496597264809,0.00212158783081287
0.0436141896001858,0.0589467462899541,0.00890652188399471,0.00139052510049611
0.0390225896552775,0.0622932258011184,0.00834553878169671,0.00177395398085148
0.0424678593670658,0.0679189654523079,0.0111285219642989,0.00155978801770701
0.0564360105773094,0.0740905953243211,0.0113953282952441,0.00149375626721628
0.043002221275875,0.0689996509904027,0.00880873533024498,0.00129879453676203
0.0462535090421122,0.069614267564167,0.00937301043949877,0.00220290050898484
0.0461474754111481,0.0560072232690297,0.00950973926737928,0.00215581263573575
0.0381640172759255,0.0589276288911653,0.0091971554464579,0.00109394048376786
0.0431730429689993,0.0649616063637037,0.00959746674472222,0.00106344553835145
0.0510959848863022,0.0715255869566031,0.00899884123715992,0.00174833477951205
0.0526036372997609,0.0613225201179609,0.0106884763470494,0.000984334863044802
0.0487178008250779,0.0596286979576667,0.009356658396124,0.000999123699476288
0.0497293161287725,0.0772403007621267,0.0139194248144304,0.00164636819488626
0.049863539935823,0.0691714737719324,0.0119320959570945,0.00151895141298895
0.0544378270233123,0.0629095940807156,0.00917660598849761,0.00135623812130368
0.0497521091724131,0.0754659507473917,0.012127594830868,0.00108078400990788
0.0494169561130286,0.053175791437361,0.00955277706917484,0.00177325912374533
0.04650708182779,0.0699342619101299,0.00932917345733476,0.00254749860049124
0.0514917522050504,0.0630577983207114,0.00857114431058827,0.00117425430854295
0.0486792807707715,0.0520839327818989,0.0077730845895931,0.00130265291204621
0.0457432418758408,0.0614331883293096,0.00825945776410237,0.00124332096158247
0.0504639261515485,0.0571853371776149,0.0111329735675101,0.00128812738208341
0.0453939735028661,0.0552070660355739,0.00975960093883255,0.00109437780799986
0.0415022695299181,0.070218261025964,0.0121048457762344,0.00126431410010514
0.0339956773128574,0.0682748603985613,0.00816628088146923,0.00100795514954674
0.0420539842660224,0.0566954979528323,0.0107378645905582,0.00250036109038128
0.0528726519276348,0.0477806066190004,0.00927383123486704,0.0019263164544587
0.0398220930313094,0.0546476575666252,0.0103097316224258,0.00176603465659167
0.0447377368386044,0.063015039333335,0.00805118876575138,0.00196538551210245
0.0450972068087977,0.0833946544806449,0.0121929318232615,0.00185160195193449
0.0421905510100758,0.0584936529772138,0.0116256578071286,0.00161439518650959
0.0472960069579803,0.0774943757056313,0.0111775418812136,0.00258769655242335
0.0443863328861059,0.0679786687889812,0.0108827149835114,0.00192294955132255
0.0491226302962897,0.0671768823988678,0.0111007752874081,0.00164210944886459
0.0483325460142974,0.0730491518364793,0.0103075928320731,0.00256139100622169
0.0405168129292962,0.0605173659791548,0.00877677299591757,0.00248726004250025
0.0359653879530695,0.053054755391013,0.00727339965087316,0.00204018324926737
0.0460221904987391,0.0682589731343259,0.0104246380553903,0.00178991285741281
0.0418632663543056,0.0635808167779576,0.010020117308346,0.0019086097648509
0.0374119026856483,0.0612751258079027,0.00979502110633903,0.00132579050109954
0.0360141011075605,0.0704331762940222,0.00938499777625007,0.0018311559420007
0.0492718420278048,0.0586232015895454,0.0131863403408564,0.001398700895721
0.0401851202601444,0.061708907533938,0.00811430033842207,0.00115500727127152
0.0488240434295915,0.0677717750579303,0.0102522505065983,0.00144335201188415
0.0438351078057297,0.0480110795127464,0.00928611212801255,0.00185922360866526
0.0438497620466656,0.0533483466716494,0.00786618658417923,0.00119272331436524
0.0488797272474331,0.0579900456079128,0.00973171013454916,0.00127372166991136
0.0364911926670326,0.0571439941669466,0.0101169030447085,0.00188866013126278
0.0451828713594149,0.0633998642845131,0.00952991641491224,0.00117749419653174
0.042019592640429,0.056324113866571,0.00939657151890313,0.0010215323051165
0.045203681472703,0.0688689778393412,0.0116873675184096,0.00126729259704386
0.0387491470154375,0.0608474185745822,0.0145688502956764,0.00127972878447898
0.0463974531057062,0.0552922734992911,0.0121828670831083,0.00105323566945847
0.0495146358596394,0.0517901562721573,0.00896111687976418,0.00139271924828286
0.0150701134591242,0.0308016985438192,0.00462176639956512,0.00106434035860928
0.0130989295679132,0.0291044509311419,0.0038234403972055,0.000974708840714074
0.0133591666426025,0.0228957178996636,0.00373045317710836,0.00104279073107103
0.0167503785593183,0.0248458719296148,0.00399197233725701,0.000923714234610917
0.0160924815824731,0.0255648028232811,0.0050294093110954,0.00108126742284599
0.0108184359836016,0.0218897407714842,0.00373356450127266,0.00110195819773874
0.017061067065539,0.0309754898587305,0.00490735757245894,0.00107142930832078
0.0122445127662676,0.0244060561723135,0.0049645556592701,0.00111028233071181
0.0164813466987648,0.0267909906958164,0.0033406296383069,0.000907824070582888
0.0148112583989543,0.0269534123785672,0.00381323966415562,0.00128782359164021
0.0148437390168842,0.0298107292647635,0.00449276415957699,0.0011051800905799
0.0139315668849982,0.0227514042219725,0.00376911097213567,0.00102258608626016
0.0142525992592373,0.0265076411681732,0.00613928995520343,0.00111582370946304
0.0169753387744949,0.0261450801877691,0.00492150002169783,0.00114350754349474
0.0146169410289544,0.0260606964859479,0.00463121935684199,0.00111136476295503
0.0122468107339019,0.0245727146595064,0.00424199967048321,0.00117322127715255
0.0138312593251777,0.0301417298022047,0.00460988072723507,0.000980256359289508
0.0128461746790056,0.0278676162113314,0.00358811434842564,0.00101730248988873
0.0133556747048995,0.0226120097464385,0.00324082968769219,0.000976848839933786
0.0111948479841654,0.0269086627285238,0.00410102522304412,0.0011096468840833
0.0159478870894364,0.0262983868930729,0.00467528624514975,0.0011162139442607
0.0166109736400609,0.0262783062382004,0.0035381023406408,0.000807174384690684
0.0125999585724908,0.0275898618070159,0.00475191607233248,0.00119322503543753
0.0126659053145222,0.0254750625011999,0.00768782466754301,0.000921265909705908
0.0168720383750946,0.0265046189774144,0.00552295364655685,0.00116150551527568
0.0119599969064248,0.0254384118169954,0.00391586647674938,0.000923997032233287
0.0152565983324445,0.0399694949432221,0.00453497911168101,0.000850896702105187
0.0165199060314987,0.0279340620878499,0.00461944290102618,0.000989248974032318
0.0102708792090978,0.0272634444118012,0.00375602251086326,0.00111851008304493
0.0127544246728257,0.0259161026857244,0.00320833385750289,0.00100573238976818
0.0125730841343919,0.0274212544357411,0.00420916199504961,0.00108676967123559
0.0123471900610564,0.0250324292057958,0.00417695987904257,0.00115562646177787
0.0173285905999763,0.0266605702116647,0.00388263997318629,0.00108688027668887
0.0145907059559952,0.0290469358499406,0.00405192033600301,0.00112243532038448
0.0155463390330887,0.0293400067113028,0.00459787738593851,0.00106011061008244
0.0168918433084883,0.0305548799827192,0.00472532730667444,0.00121458374878242
0.014761440577778,0.0345521631305277,0.00413611006343221,0.000967245110046339
0.0205860013723865,0.0351854598894044,0.00400511551751462,0.000988639825811064
0.0183274215058424,0.0299701757386969,0.00390832180862358,0.00109231599490832
0.0197748871600241,0.0294079220125087,0.00861686756648286,0.00111300581859403
0.010610838757602,0.030582744886842,0.00787114052582917,0.00109230869641944
0.0188010471161588,0.0293849170246203,0.00587577955829432,0.00126360466904797
0.0152530578805216,0.0307557230401685,0.00423652679537621,0.00107719150043411
0.0148451390392261,0.0318801544531006,0.00653535215621213,0.00115440207437426
0.0122925884776695,0.0425304727441471,0.00601679891097937,0.00105325888098111
0.016070332228575,0.0333699453400928,0.00486088871631669,0.00121402898111644
0.0155885292501548,0.0207570538338831,0.00452440095839699,0.00092420816961431
0.0154536323569457,0.0228201499650542,0.0106029936692498,0.00123310336681657
0.0116754738359577,0.0227845781173923,0.00730382696185692,0.000902878614177869
0.015539196920747,0.02977932467727,0.00358556458169452,0.00116005719506018
0.0127665826596648,0.0280000201041333,0.00384103351652901,0.000986710144694087
0.0144375196710474,0.0285922020627565,0.00404283082626733,0.000775690639435263
0.0141418857046787,0.0284483673813024,0.00504364592845342,0.000992397009876646
0.0173486196539814,0.0280030747709584,0.0045824083457948,0.00102603062346832
0.0154395446727195,0.0248302483707349,0.00500868344222982,0.0011139611913807
0.0171353420222081,0.0276202405680237,0.00534642384944147,0.00111007338543782
0.0152782516106348,0.0329387224446018,0.00471240809385223,0.00110918193741682
0.0152741734336483,0.021664059778079,0.00432450919721068,0.0010954599172362
0.0116445340222649,0.0317704470366211,0.00849076086078158,0.000883218276786268
0.0161653703468685,0.0223871441870311,0.00750211676136588,0.000913650391646916
0.0244746840430463,0.023278541607978,0.0084997406568768,0.00157068975077638
0.0207394133413598,0.0205270034087825,0.00639690107632346,0.00136408402539999
0.0245861078429669,0.028161105466812,0.00737380016084329,0.00149572928921978
0.030855303443949,0.0219520741190574,0.00629693208136887,0.00154425169635236
0.0225899984015301,0.0200322355529173,0.00883670510333016,0.00142229662648907
0.0250038794205763,0.0327506072154532,0.0094081568489894,0.00142348962104517
0.0257414382724948,0.0305031701326702,0.00675796864195781,0.00173784208568621
0.0300074066966861,0.0293374019312259,0.00871376612880374,0.00151449949525769
0.0255960055342773,0.020324174858218,0.00638801053965624,0.00158726170844414
0.030476968569605,0.0218701958688008,0.00810880594032999,0.00158341660974514
0.0224548994440673,0.0222537629218641,0.00605137769094878,0.00160856220860639
0.0302925272097772,0.0216765342372613,0.0075504959341953,0.0017003288786209
0.023889114313572,0.02567252547021,0.00817337376359071,0.00160420089835627
0.0207457643097476,0.0204463522366232,0.00822486917438348,0.0014851909268287
0.0242514226890956,0.0277373137499768,0.00708799020520259,0.00154658790754308
0.0314794716113611,0.0254667650900606,0.00749774003521393,0.00143487651777236
0.0271063372641113,0.0269011359532361,0.00827828941955858,0.00162636818066099
0.0237853226507422,0.0247598499148843,0.0072702548981564,0.00149133237147202
0.0191987911662106,0.0217935198547999,0.0072092029406805,0.00141412650107101
0.0278951153182678,0.0278687004849352,0.00774325944234221,0.00157776760730124
0.0270449877263656,0.0227324850075823,0.00637533253148566,0.001580422476855
0.0283536387395852,0.0208675144874376,0.00755802081573493,0.00165740653104881
0.0295512488121827,0.0252960989302025,0.00756791454098435,0.00178552087032452
0.0273480437190786,0.0334475928686133,0.00963842590367934,0.00142820087004228
0.0341977729101964,0.024718440219864,0.0075322048075681,0.00160792659172571
0.0188774892906214,0.0164275634964237,0.00682726029795897,0.00156168625753435
0.0259728590099494,0.0269368379518416,0.00659100058383096,0.00160238560488461
0.0240467887433254,0.0262392614364926,0.00593953487902884,0.00146252627416307
0.0241708802144906,0.023944852927903,0.00746376834835209,0.00133802414360047
0.0227459920098667,0.0182982322570197,0.00630358789489146,0.00161653283228526
0.0275302664533444,0.0216718067517226,0.00882185853373751,0.00163134297917911
0.0270399258057925,0.020342662292394,0.00762671458700685,0.00138886704479142
0.0284503447971698,0.0226189033936506,0.00705025038401434,0.00139778903212107
0.0204768082386852,0.0222156257038394,0.00610629531154315,0.0014628226753947
0.0261276619287801,0.0202181403426788,0.00702187533459922,0.00138407074435227
0.0256292737708362,0.0253731081558185,0.00968808948804699,0.00167388876410826
0.0237078126639649,0.0306799609720233,0.00773017424614952,0.001458919445593
0.0229530870519121,0.0249684568377119,0.00725658222200764,0.00157428411441607
0.0319154406555827,0.0270745304822644,0.00978532622701593,0.00149962196392241
0.0287022875495201,0.0243886702854298,0.00694309530905965,0.00143834704792982
0.0242934288018806,0.0227561978745394,0.00991514613262857,0.00165703297360804
0.0243709319604815,0.0234633428713798,0.00925440401409048,0.00162675302665841
0.0211905698795732,0.0234709835555937,0.00998916761055652,0.00160520311433176
0.0375287792316322,0.0277717527893715,0.010938191621338,0.00138058016468528
0.0298040798510774,0.0273278701252089,0.0109740021146745,0.00169339571416639
0.0318886574658673,0.0281583211865994,0.012115311279665,0.00169838059826974
0.0301676515620369,0.0251285804202113,0.00835919451170906,0.00144036416150924
0.0289053878456066,0.0255201442934187,0.0121070858108776,0.00146227377458269
0.0244679592880643,0.0284445657485924,0.0102360613441134,0.00163811791115729
0.0222894015297864,0.0230678734181232,0.0079489084022497,0.00144615281813715
0.0225409578278909,0.0230945802501473,0.0074204837587515,0.00149520956098283
0.0238264116657483,0.0223558971486559,0.00812122657707218,0.00159722665882267
0.0232318983487827,0.020773362620418,0.00643157685021061,0.00150420867770328
0.0280238751596173,0.0255987617931754,0.00745693446762538,0.00143937285350604
0.0222306050610667,0.0186593258561377,0.00917684392408104,0.00140637901680731
0.0305619676295142,0.0212986070979897,0.00998672090962995,0.00160763979544805
0.028647423806093,0.023946465278295,0.00803316148099735,0.00164284520507357
0.0225081659650081,0.0179835914249083,0.0100381066866721,0.00148767525731912
0.0265956105435677,0.0190864799905849,0.0108813229053106,0.00175928313735582
0.0327941691103079,0.0316562554706035,0.010170001306916,0.00151048368431699
