0.0106324165531225,0.0211213748405623,0.012002317368481,0.00233462675860498
0.0116476649928567,0.0233618238192038,0.00798286144684852,0.0025710040531053
0.00946279791270612,0.0275336310050835,0.0115580546581546,0.00203287316031834
0.00942724753822706,0.0209875679587999,0.00733081703507992,0.00231514201750029
0.00906818795603231,0.0244551409010871,0.00752790838072585,0.00241597955061432
0.0118391081487864,0.0247594132148166,0.00776069356138657,0.00257478234031272
0.0124188405212411,0.0226032783003142,0.00520788481118783,0.00250846185246338
0.0116935149779923,0.0221872425767508,0.0072030730120362,0.00263663728330734
0.00984621088864306,0.0212900724042549,0.00902208602806299,0.00259831167441721
0.00916704279464046,0.0196275456401814,0.00795718462435594,0.0022498868493999
0.0109126071240055,0.0173566164330849,0.00910371559740275,0.00209057941441656
0.0125279382515767,0.0204473327340632,0.00987024887645592,0.00273300932685169
0.0123848462023179,0.028369647368241,0.00946896453442764,0.00277936793788433
0.0109527458217409,0.024485453170843,0.010624518312083,0.00407557993875974
0.0139501451817914,0.0296307684062131,0.0139252248008704,0.00654195787412143
0.0178414427322177,0.0277163401610893,0.0207546020515584,0.010239809174986
0.0252464565256478,0.0309102854761096,0.0195626277418435,0.00934658224778939
0.021221036356531,0.0298104416319218,0.0183396796025983,0.0104784413357358
0.0191467327570249,0.0348343792272024,0.0131694757091199,0.00946026410176945
0.0278372366337232,0.0329781833452714,0.0164444437820864,0.0109288931395136
0.0358659272290731,0.0307094990553111,0.0118522750343288,0.0109131965731035
0.0363009751503152,0.0399696968773243,0.0108847884753823,0.0106410584561887
0.0398345232445034,0.0418913239775356,0.0156196560682474,0.0119152105233011
0.0329130084650034,0.0397427930542563,0.0165830618337742,0.0129728446591701
0.0288303570593901,0.0364184781325609,0.0137354317720087,0.00842467862288434
0.0298766028988142,0.025478566243233,0.0119727017904124,0.0142825057202104
0.0357592350291662,0.0395185962798993,0.0116798416674807,0.0120013614391848
0.0312634595074662,0.0399221798699109,0.0111854460462267,0.0135631687892475
0.0341878542841331,0.0365980020423597,0.00957940730272416,0.0098052749737686
0.0408941731937609,0.0288524937719175,0.0145789776569923,0.0128390745188894
0.0289560247458531,0.0339692682287934,0.011433092088316,0.00940158005456572
0.0303359797468007,0.0362082480439028,0.0199602423387967,0.0142869216342489
0.0430662371333022,0.0390774714633161,0.0176767038156431,0.0110862846083528
0.0340400450587796,0.0351187869911498,0.0137478933799187,0.012133744035831
0.0366291432221534,0.032854631313381,0.0167204924771561,0.0103822246906662
0.0285485198465909,0.0325456597974509,0.0157016697952237,0.0108236045252873
0.0323935869279541,0.0329696371255466,0.0131324476577445,0.00786891197741778
0.024048118881398,0.0319353851483576,0.0103115911155229,0.00867111121675149
0.0318809467989919,0.0347034686193528,0.00929088239442569,0.00843753573271759
0.0271947927260288,0.027553685505851,0.0150023179969475,0.00794935027707449
0.0378855638819996,0.0324769787152906,0.0149241031938495,0.00919396707152799
0.0216591149189263,0.0377607340381937,0.0120008585053114,0.00920601354579258
0.030214336755183,0.0365148147027035,0.0117032681383875,0.00644586579003507
0.0253409204466283,0.0326085520181415,0.0124556075623781,0.0065831712712307
0.0234047047253281,0.0297538544728151,0.0136299242709286,0.00802244545196029
0.0201984259704856,0.023012040979875,0.0110720456774463,0.00822825714768197
0.0285212627423521,0.0342079802118478,0.0116030627611246,0.00706232419392449
0.0266629862244208,0.0307577124919745,0.0150925127224311,0.00663767598772301
0.0377902519833886,0.0329345869329146,0.0153480679547292,0.00812071042360244
0.0350686258233836,0.0260854724958812,0.020362872444381,0.00872354673792811
0.041709491283044,0.0390877812396382,0.0170692986662875,0.00599849761004226
0.0299907432128535,0.0303095718718886,0.0132926017266347,0.00769263725906833
0.0274069897172161,0.0267264213111473,0.0140582068369062,0.00556009061046058
0.0220436743696832,0.0370105273021381,0.01217404941304,0.00678090904540166
0.0254283064726669,0.0280492011885103,0.0137384753716644,0.00633929793829678
0.025716708181239,0.0289686944082536,0.013234940704612,0.00561328434945551
0.0211651260863774,0.0259365461991098,0.0126620803792355,0.0092826123743596
0.0190105001012639,0.0354153451862379,0.0123217998662251,0.00621102089709748
0.0228596191593062,0.0337563218938942,0.013689082267835,0.00517993155930227
0.0322727658981916,0.0382019809985743,0.0135325197279398,0.00623298887007569
0.0210769630502351,0.0387390176800171,0.00918864947472937,0.00816418255241692
0.019920074896255,0.0346880723515779,0.00952656803899777,0.00848022286426728
0.0215444744245794,0.0290805117429378,0.0111156305257651,0.0078726531287117
0.0236117456369117,0.0322524248898468,0.0115999112475232,0.00952700173530715
0.0216622235917273,0.032287550524773,0.0101415588641179,0.00985997847800054
0.0182601110506245,0.0299172444726876,0.0103668503931718,0.00835136091012649
0.0206483511681084,0.0261626831408849,0.00886381472627482,0.00708968427453682
0.020445984157849,0.0294691386672919,0.00969015679652941,0.00859184232053852
0.0223888754254575,0.0225879746580381,0.00749386347792948,0.00856830160805194
0.0201718699796683,0.0368384091448821,0.00901457917322436,0.00836712964587917
0.0209377632823891,0.0313942048984203,0.00737721015543838,0.00636050549975833
0.020343387931351,0.0257041249722559,0.00772099392106026,0.00840822773604122
0.0178555241395629,0.0356857025964091,0.00786765300729829,0.00686761221753503
0.0188533989969526,0.0185672991332408,0.00816112098202735,0.00562934366994776
0.0263877820010914,0.0279055671595803,0.00680841557432958,0.00824289695607724
0.0201865638812523,0.0308101221781018,0.00766078213273002,0.00605737058233388
0.022187499812163,0.040529095071777,0.00879244259534866,0.00708149925096775
0.0340950256056123,0.0371242779218082,0.00802154217227978,0.00599892137540694
0.0350066806172815,0.0350686209513779,0.011004855236866,0.00487345289122051
0.0305867511352144,0.0435650252193714,0.0162419099864113,0.00442622397557035
0.0354638677339956,0.0383008987951638,0.00984041056238394,0.00434072701540967
0.0389683789771327,0.042569344100143,0.0111526647425232,0.00421995014318248
0.0370644956603998,0.0500583537646292,0.0109472432685506,0.00411108564278706
0.0385589196092195,0.0501121824959376,0.00933236028152823,0.00380765579236391
0.0392760750358985,0.0434776368039855,0.0116684909625857,0.0043247447458929
0.0476292855844974,0.0643410148354702,0.0107644154739746,0.00326781719309928
0.0415970440682468,0.047685372016081,0.0109035454191626,0.00375817975116155
0.0365598965048805,0.0525436667529608,0.0129017690198429,0.00323479930341265
0.0352038400773473,0.0530513724637016,0.00906462277091191,0.00314431040341598
0.0474750656262139,0.0474200039786306,0.0123674014025411,0.0028566877132756
0.0463358598101189,0.0455544811880578,0.00842386443098098,0.0033038773878563
0.0439778623988815,0.0464599905293823,0.00785012647124199,0.00219430056408887
0.035129024755731,0.0352301529839725,0.00765175509610454,0.00259919865406652
0.0339803897051717,0.0407905428457681,0.00915025172964884,0.00369282217828827
0.0396900421192308,0.0282521483084026,0.0112300653159435,0.00344204815389807
0.034696199302335,0.0379722512097358,0.0101671124905958,0.00366926430580798
0.0441880033633966,0.0383461037393975,0.00944531511405664,0.00451033055476545
0.0326918526342456,0.0430210970203045,0.0104524056714091,0.00453533230259899
0.031472205349812,0.0610116528645969,0.00984464805072474,0.00564407873250741
0.0328852885289244,0.0501237440084026,0.0125982592088232,0.00599177360430177
0.0368841891542468,0.0425893110310519,0.0098221484791696,0.00628460707636519
0.020946511937653,0.0455367082191356,0.0116427522583479,0.0085839789483663
0.032702108715961,0.0448845608470083,0.013173363254896,0.00797061042080111
0.0339077863428088,0.0502862819979523,0.0146841810135478,0.00826946802201716
0.0329693780295778,0.0474653220441337,0.0110222491459766,0.00631996859317414
0.0280990666059072,0.045668379045986,0.01078012118456,0.00480225990394059
0.0329177358099067,0.0418155859488595,0.0123824035927737,0.00669142617549595
0.0307515568272577,0.0428925357810398,0.0125536076732721,0.00728786249822957
0.0233075257574876,0.050344320628123,0.00995319808562158,0.00561219157979637
0.0298240031947012,0.0426097745653799,0.0113919231384963,0.00533317573726809
0.0313680604550542,0.0498309087984633,0.0116907281360782,0.006842144659046
0.0374668457884339,0.0388022410282414,0.0130438654094648,0.00681676133089509
0.036785282988552,0.0456424689585754,0.0113355524951666,0.00657069869697735
0.0260868272600503,0.0465604909947853,0.0124247411932978,0.00617092378812444
0.0273356470956074,0.0505747680835577,0.0110579653556974,0.0056747805367596
0.0352985858612134,0.0412493592729742,0.0114290323877006,0.00602428977010911
0.0339046292627635,0.0506580920745074,0.0106819037901055,0.00722128429843309
0.0298110137882112,0.0458912773651049,0.0110307709183952,0.00579748248555932
0.0364834676857025,0.052770746338114,0.014133954718797,0.00538093588512441
0.0332952073605135,0.0439663648278427,0.0123667423283604,0.00773904247732022
0.0354474731188825,0.103560499221187,0.0181678020413341,0.00252491925606557
0.0330237958561434,0.113911713567754,0.0174006824174779,0.00267888146750908
0.0327484187088181,0.107446490241514,0.0147338177852028,0.00227347987159406
0.0391412289034486,0.0981337473309534,0.0194310734723092,0.00257410075071153
0.036792175213698,0.100183722130889,0.0179535675361146,0.00263355534660038
0.028439839260767,0.11742943217091,0.0191997242611518,0.00273739874998456
0.0411540060031541,0.12139734840792,0.0192336220946877,0.00280909692769907
0.0379637162172568,0.0992697057578547,0.0222972685172988,0.00317338221627388
0.0389126328457086,0.121136478505787,0.0248182739739228,0.00299070574243146
0.044068297994404,0.0888036122535384,0.0239645557939286,0.00280558743618235
0.0420085093979955,0.0827147704720137,0.0223376076362101,0.00266658134141864
0.0395115870021636,0.0877361533674057,0.0163753103415665,0.00217352157147433
0.0519178016344352,0.0865879379073314,0.0533311492221595,0.00327651793849624
0.0508097358780289,0.0764622337575279,0.0393255506159854,0.00610039153891985
0.122413303588879,0.0802974212955491,0.099906588749458,0.00410108354157872
0.092417105740509,0.0794603182666452,0.0969567971667023,0.00337635590813354
0.0656219691801002,0.084200385344235,0.0531106895133622,0.00329206022451891
0.0430944848278736,0.0769817124407073,0.0353820949089292,0.00307828630992296
0.0367131152210663,0.0901927745940445,0.0285097097242229,0.00430584749035963
0.032476682005129,0.0647865872753968,0.012625669674601,0.00514363722204977
0.0469924968884355,0.0706088386670051,0.0194639788470068,0.00475494537876979
0.037930150210075,0.0732382042760954,0.0195258489511646,0.00391385288645989
0.0412754426361979,0.10138978415517,0.0246231975069193,0.00501436262397371
0.0464087173369515,0.0525779482310955,0.02505216670813,0.0072508657728611
0.0416258264732551,0.0716360878662989,0.024218642433945,0.00702495261809028
0.0502377467435211,0.0672690956886575,0.0324273847216216,0.00644057860272274
0.0488171500902685,0.0682277878158541,0.0234503265943885,0.00745178788623739
0.0366161287757157,0.0809038335450415,0.0271393517932925,0.00842201567623464
0.0350971219072259,0.0599126311023335,0.016632092357679,0.00957468966258473
0.0396570796550667,0.060022923934447,0.0399890921939044,0.00746848145350903
0.0355582551245622,0.0730324802256644,0.0283830284446921,0.00722765138357067
0.0449414250984721,0.0652893781436996,0.0210406455503774,0.00819291451514086
0.0366618345816117,0.0529778773235199,0.0217107661798823,0.00710531802108182
0.0264688238309579,0.0677508546911583,0.0315793967819648,0.006854254655702
0.0462710527160417,0.0569836830763515,0.026045066740592,0.00679225394871073
0.0486564694341798,0.06675292756289,0.0205747690114185,0.00539823468337995
0.0411713490363769,0.0642494249328462,0.0166344719461386,0.00595582934505625
0.0390335463513221,0.0548870122122341,0.015190073043054,0.00461495419994486
0.0486025508527595,0.0624737570176888,0.0123704386241058,0.00612310204737447
0.0477918950597676,0.065867153248221,0.0156840158077669,0.00446567460584389
0.0279843090591958,0.0740067082917026,0.0175259142035193,0.0054356842166676
0.0361228768707789,0.0675077801280096,0.0175350186533498,0.00613836384210919
0.034518381831996,0.0756207474990996,0.0175475214448088,0.00489913398742773
0.0315213338194277,0.0659645650651501,0.0165349930349404,0.00522724880484336
0.0294283762748983,0.0638991787715507,0.0150571632122001,0.00596966058170672
0.0316146026201351,0.0672787321371318,0.0216923919094824,0.00485596125216776
0.0367061200533663,0.0764365164138047,0.0143435802292125,0.00531559542240722
0.0391391313513625,0.0777318351655426,0.0145961703131867,0.00539704588802765
0.0366991209971825,0.0719358083747184,0.0159766765452978,0.00617152434248133
0.0439935707668937,0.0634441728643449,0.0123950789993934,0.00545807560496265
0.043593422360086,0.0649681983785528,0.0162616704070188,0.00804257116898456
0.0376817981791404,0.0657238080430168,0.0156282509481495,0.00747574958978311
0.0425974250750965,0.0765025310486222,0.0184420121846906,0.00695637973270751
0.0356983127870932,0.0605151946684495,0.0188464802188969,0.00835919961909637
0.0393409514032887,0.0642923580555434,0.0172898590559219,0.00979146962360185
0.0411499135629321,0.094601229278437,0.0213407793000434,0.00935977745609559
0.032006261500788,0.0620600530796434,0.0141555726257968,0.0109178872938925
0.0390436567647381,0.0636449999527452,0.0162493728982597,0.00885787830483548
0.0355151512024545,0.0723482713789057,0.0150052324652229,0.0133978232141248
0.0492134588384254,0.082400100028519,0.0156145498198841,0.0131038174600984
0.00719062245448604,0.017290208034514,0.00941425539245126,0.00303119587015446
0.00609288327563121,0.0195660671907821,0.0134421518317707,0.00278456805890757
0.00837078922201632,0.0255420019970993,0.0156676344030148,0.00289855195011163
0.00794529349649754,0.0191970346239683,0.00918072393723118,0.00320604369047072
0.00656843176299471,0.0219883459105664,0.00774182557874372,0.00255140387271401
0.00695352995057081,0.0273056137707258,0.00982962014672622,0.00317804997547451
0.00799030355995035,0.0207126797447384,0.010665855376054,0.00282272223524459
0.00884388736112226,0.0324540476176699,0.0123149115116494,0.0028899195925697
0.00797817060290401,0.0250328161853282,0.0104270217079945,0.00370470198692491
0.0080144236171856,0.0311006894490077,0.0110763240259716,0.0031870184333585
0.00680066605890609,0.0256542661211066,0.0111195490044271,0.00286613433428905
0.00947092556225399,0.026799343879644,0.00970989264394285,0.00614323662082377
0.0133989178211572,0.0258102759774552,0.0123587398566206,0.00622185836943171
0.0106908790444507,0.0278690643796674,0.0100056149441566,0.00745880765001234
0.0268128457298459,0.0293564183713735,0.0172610592741815,0.0141473965370807
0.0311562717264264,0.0292587040222326,0.016465418593847,0.00994989419887855
0.0422655800605561,0.0345535980825135,0.0236013552428197,0.00987088983040183
0.0485915433440465,0.0307844385695226,0.013646171734297,0.00937064313536521
0.0855753206483325,0.0463322108164852,0.0238810052561355,0.00507150914277843
0.0267892831049601,0.0529232542052636,0.0148014357953058,0.00976764354260977
0.018177074144559,0.0429594372274364,0.0112123114742586,0.00647523729153775
0.0219634979103345,0.049177352399829,0.0118072053253418,0.00662670217998974
0.0171694021957789,0.0405400713839751,0.0127260703635351,0.00874409094279
0.0166913811933569,0.043726949407999,0.0137455954529463,0.0134521218471433
0.0187124609548067,0.0543098789462037,0.0239546706129449,0.0128114542791934
0.0164875522093598,0.043068325960628,0.0169875834287624,0.00670967340168415
0.0145397075685188,0.0401453022144152,0.0158273472669727,0.00758121474718906
0.0150029471531852,0.0379368865531415,0.0182298517640555,0.00600273559239787
0.0211176080831127,0.0476371503468459,0.0132060012376508,0.0123799918643575
0.016613653421668,0.0363948035567287,0.015648648050515,0.00693618949478879
0.0191398716646158,0.0490059528605301,0.0193780996622153,0.00857553069163304
0.0192858976620421,0.0510950793193475,0.0132928784636858,0.00736895699900236
0.0140445946412885,0.0433481520554555,0.0108000368953778,0.00583010554718964
0.0141101627358918,0.0291301600562625,0.00958892158642767,0.00601340810235801
0.0151078691480808,0.0373436986317982,0.0120264447370462,0.00572515626164961
0.0165173262217709,0.04427333578074,0.012879634473021,0.00961147846399309
0.0134267728216113,0.0299083888430226,0.0132073365378103,0.00504092412728538
0.0157438008568902,0.035491446854624,0.015401002888078,0.00637981619537467
0.0108516415943675,0.0328545478437587,0.0183829685029499,0.0051064421772361
0.0161169261493719,0.0335598426881679,0.0251264943415664,0.007268404999689
0.0181808567030075,0.0426058116248423,0.0581293262622086,0.00772169974817941
0.0145427275876738,0.0393920257652827,0.0165687514236394,0.00896351844349019
0.014900787730743,0.0334639855408062,0.012929718817504,0.00802816733169143
0.0122937973823593,0.0329083707713806,0.0126747295355868,0.0073052450059243
0.0119387865251996,0.0329834376377663,0.0141805723090923,0.00980492578991328
0.0103201973373613,0.0341447717175089,0.0112440834812656,0.0100744322418933
0.0137992263751067,0.0324334064781134,0.00952390895509024,0.00751263501674037
0.0122993268531326,0.0325503890807541,0.0107920465888929,0.00746865873306389
0.0128426928528189,0.0455551589762948,0.012969560877026,0.0080569858566832
0.0123997430534668,0.03846746397064,0.0117641895199036,0.00770099257497415
0.0143072110750164,0.0352013173723375,0.010963636636423,0.00559095847216672
0.0158448027985169,0.0423557778645599,0.010775538339059,0.00812924916395982
0.0112971531079432,0.0326792020235829,0.00885811076296843,0.0068055901064393
0.0154029716235029,0.0441451491149485,0.00955671940615458,0.00584062773380035
0.0136372531892754,0.040995107817656,0.00986381427326671,0.00885255205399573
0.0151955348544856,0.0414083415374269,0.0115473042442156,0.00639499941340946
0.0123314726969384,0.031547588426626,0.00982647403857519,0.00804833732346823
0.0110262305438224,0.0358451871303549,0.0103224750963269,0.00635131443602575
0.0125362526913732,0.0384620966556904,0.00881409016199878,0.00710643009757063
0.0108540664613335,0.0356970752324092,0.00734046466458545,0.00550990401706084
0.0432803343420669,0.0371119576268907,0.0240988162660753,0.0133578030656289
0.0534818333594597,0.0339521757238916,0.0240085041649723,0.0193160317934396
0.0489691472817418,0.0365411315869676,0.0228322914890093,0.0189967983193555
0.0431728474012622,0.0330264999418921,0.0193655074874021,0.0282489471793351
0.0447754672779979,0.0419112818062104,0.0164392964638339,0.0218742651549896
0.0462126886498348,0.0291451150647275,0.0265255550440058,0.0148841424436588
0.0491693048717386,0.0297699930644746,0.0232438418270291,0.0221886262409173
0.0431863109011644,0.0352769755247764,0.0213397889011588,0.0232120899970821
0.0509122717341051,0.0306531063621116,0.0176580070785766,0.0233034152907257
0.0489665617526212,0.0314283720173826,0.0200311147283295,0.0281151197884547
0.0373644124911898,0.036517792828493,0.0154214594663227,0.0239766451901055
0.0554298393534961,0.0327038741200509,0.0141061597197233,0.0159313586907542
0.0388324741860071,0.030943014271796,0.0153087084369461,0.0412524825352924
0.0453350252030636,0.0231366484126231,0.0159289569071748,0.0186723629937491
0.0570091773008138,0.0310153433645698,0.0131674486992698,0.0188357481555148
0.0453508859159989,0.0273974970092247,0.0125720558554031,0.0258213363263585
0.0455877434850592,0.0262715593686405,0.0149776508320149,0.023316534256707
0.0541006869100055,0.0244750243710683,0.0167220837148211,0.015227902075837
0.0507900374302148,0.0320560760047929,0.00916528242926865,0.0261451395650975
0.0572115549453833,0.026943139061909,0.014843341713611,0.0219126801050383
0.0478020768573291,0.0286302545002128,0.0132669638511376,0.0290128868014232
0.0545957347394153,0.031135016465068,0.0133233234651341,0.0254169311529982
0.06660549904138,0.0439672876763296,0.0143842490317168,0.0368521863669622
0.0604196945221674,0.0317056527997257,0.0159064493097591,0.0379037869644802
0.0837551424926305,0.0518178324584955,0.0181537841741637,0.0611998848616483
0.0790322113548276,0.0379073660057547,0.0153042308172952,0.0510240850240887
0.0825030007515292,0.0626606610601968,0.0266276444521156,0.0851557433175684
0.0974011363519067,0.0623930297412825,0.026415105035393,0.0657712431114979
0.102938012087625,0.0816677023277285,0.0428088420576644,0.0933977459913069
0.0958671297737407,0.0530864150997568,0.045422154828488,0.102117046358743
0.110812487483909,0.0860073284588092,0.0390225439302429,0.0800743372685373
0.125525873211186,0.0642166211503084,0.0432425247592873,0.0591834846444137
0.127062647207854,0.0776654788813005,0.0403358944577845,0.0646565887006409
0.0963234141858485,0.0686204037209297,0.0244782873402855,0.0749944729260616
0.0826204716593935,0.0535447275099643,0.0196960327883271,0.0719674257551369
0.0795820812432305,0.0596361984336884,0.0165843975265262,0.0665488267696411
0.0730023556477206,0.0637534241386981,0.02528141667674,0.0704919115596748
0.0826757258932585,0.0601611744299238,0.0225665659828581,0.0382180247638535
0.0851205054575299,0.056326342584202,0.0197353445904028,0.063814715095702
0.0946517292989537,0.0490329866511932,0.0229370017723452,0.0594515854426059
0.121161203962802,0.0561031439862255,0.0180868533355877,0.0594128806148725
0.107031847352251,0.0623566971396718,0.0176198737829416,0.0651148713819486
0.0889233621434734,0.0516618446343696,0.0195969707791542,0.0580325128691261
0.091781452876998,0.0467044825021985,0.0150684332286712,0.0480372828708445
0.0820778938947025,0.0570193044478347,0.0191331408396149,0.0349142266518551
0.0836574145044602,0.0425951749874441,0.0140344021775075,0.0480604013667388
0.0759474008084529,0.0466488131279406,0.0132520354548846,0.0667238847783531
0.0749559594547267,0.0564505262450556,0.0189318306131918,0.0384097667834882
0.0842461690914394,0.0476138723295462,0.0139821105325844,0.0512434813660647
0.0647980206770389,0.0380222815609428,0.014250071330387,0.0534843411847154
0.0721307235352412,0.0471335709426602,0.0143804001543217,0.0349278712132906
0.0663970513495509,0.0422941545788145,0.0130848333857786,0.0394276151862364
0.0699771402295112,0.0557256570917398,0.0118978944879805,0.0538057397104616
0.0655783308933117,0.0456609014139751,0.0138887087967713,0.0422329324126468
0.0558956122954797,0.0508021980826502,0.0113366533696736,0.0222632777653634
0.0735651453904327,0.0384339285345631,0.0118930045937607,0.0569953044123873
0.07998002154478,0.0405327295603624,0.0135100767991645,0.0435431044168619
0.105761757161279,0.0434197732127471,0.0121761125630978,0.0355274400990648
0.0950016992326843,0.054148150266961,0.0151477395591849,0.034684169089911
0.0757968315363669,0.0400223890209282,0.0124525695628778,0.0192978996781472
0.052393442310046,0.103239016380246,0.0366342354049881,0.0051243148019107
0.041980989940295,0.0795707040862353,0.0397504845065402,0.00581596096969131
0.0368563771162077,0.0609438291338064,0.0390914840526682,0.00559150878536757
0.0391160130116831,0.0755480647839,0.0228463425526501,0.00543752780968126
0.0454627149593026,0.0683724382355522,0.0153501271003989,0.00506544218271949
0.0402201479450519,0.0739241140816995,0.0100073180774155,0.0052881961809914
0.0405058309655523,0.0683328433906677,0.0124783762414343,0.00683699460155201
0.049423605063986,0.0714208463489546,0.0144378784924884,0.00516158921105907
0.0397567465521517,0.0708405378987322,0.0157968910050004,0.00464404015276057
0.0467923412968438,0.0804437560871947,0.0151777044418286,0.00526918732806803
0.0488908484209196,0.079143616677205,0.0159371203269186,0.00504854427658562
0.040595766743586,0.0830410997199192,0.0171928429653975,0.00690076642988127
0.0531246912209627,0.0940610713261551,0.0157707270090364,0.00574374795816942
0.0397045540151099,0.0770372223797123,0.0144836421701624,0.00579376250500688
0.0449149860567603,0.101394308815295,0.0122633069039792,0.00672177766809842
0.0382418359674865,0.0995775752871802,0.0160718474748811,0.0121253592361263
0.0421175399794221,0.0695553160373199,0.0129526978365564,0.00819711603430289
0.0434811622608976,0.105900242611315,0.0150708559800625,0.0115986338407305
0.0401458361687334,0.0876573634391738,0.0166529149196749,0.0140173240158744
0.041722171379734,0.0853548816410168,0.01242852780979,0.0132841783386147
0.0388688852744185,0.0928926953467829,0.0213341228550967,0.0125376630985142
0.038180096828096,0.0797005109642183,0.0149652520442875,0.00904939548238058
0.0398605089965508,0.0641240767909726,0.014558598283616,0.0164773927394022
0.0472547686490694,0.0933327064214547,0.0163758134698475,0.0149418485201608
0.0365735474859963,0.0933755392563687,0.0165475548159212,0.0201830696790792
0.0472076551184586,0.102364845577426,0.0423356609882772,0.013877960936294
0.0628892825219732,0.0691291981674304,0.0521165880011288,0.0178843912426143
0.0565370475312178,0.0919745727611957,0.0388561322712713,0.0144583956471389
0.0532672824194264,0.101611153555132,0.0299066801130966,0.0190800694477304
0.0653635487194846,0.0850386039674892,0.0213668604785753,0.019033911225491
0.0464100402198842,0.0960321157860239,0.0109954224853505,0.014315058322858
0.0621646670726957,0.102976650580063,0.0101763286113986,0.0179135268055001
0.0796336885750509,0.100610976001993,0.010398546897775,0.0142832446104305
0.0668625108587724,0.0883007760507134,0.00966204589700832,0.013786139340418
0.0818325190803568,0.0993856554486798,0.0110351357588658,0.0119495925355992
0.0685752236098847,0.0901587007740138,0.00970500813993023,0.0119926895088483
0.069993983067074,0.0892059491388661,0.0125598701843772,0.00942209154296052
0.0893263870433206,0.0946664712159923,0.00988227681469212,0.00967946294265742
0.0818027471364525,0.117896804232245,0.0118258481763365,0.00851547145227785
0.0739361110768112,0.122316914669697,0.0119055830643806,0.00820503132125267
0.0588192276701043,0.144063045929849,0.0194022199358316,0.00695500179735728
0.10017690282013,0.110108625919571,0.0189626512890445,0.00769872486202142
0.0826665666576753,0.113875988778907,0.013912844688267,0.00732353946532696
0.082754365780519,0.123902907101717,0.0142553317084636,0.00967642740150262
0.0808025627834278,0.132375781137602,0.0164997728961764,0.00632139765041382
0.073145760688246,0.125091779401387,0.0144428107391799,0.0105618154086477
0.0918933315372407,0.103074685038359,0.0165697040408408,0.0060600375965893
0.0614758248528114,0.108721851748246,0.013697552254434,0.0109210858630523
0.0835521534824577,0.119335831167574,0.018774895395709,0.00847268295807805
0.0963456297238417,0.151188792391876,0.0228286393337152,0.00855533407113483
0.0803309172191105,0.145020684013714,0.0175970687385369,0.0105208999183184
0.131601852411917,0.125334516018393,0.0161673587251164,0.00950468495778637
0.0887615750088554,0.093494439082743,0.0126253980470885,0.00943508321416257
0.135156585892865,0.159262902216212,0.0177786565058712,0.0127848209631714
0.10758332369089,0.118834152238035,0.0145398480359479,0.0126555970619546
0.0850891945609475,0.183691758124118,0.0228562148801355,0.0152133677463768
0.0880033112770394,0.167914508729089,0.0197340528316528,0.00710026073461349
0.0749755384922766,0.110411059160088,0.0160329525139265,0.011941941717617
0.0576508707459779,0.117527848835011,0.0153199731851634,0.00780946950805875
0.09681114462027,0.181744550846863,0.0232557554384218,0.0144888634506321
0.0182507457577371,0.0430261749338978,0.00750859585878989,0.0026118419938846
0.0150204549506552,0.04840848064367,0.00784953116132686,0.00298722126050094
0.0152028237623763,0.0345973345333054,0.00720615928336888,0.00291407551202508
0.0170073955385425,0.0374796354529442,0.00828701564746664,0.00266365780590333
0.0206875599572581,0.0285553694928055,0.00669641154644088,0.00298225759978394
0.0170193710360605,0.0355421418621305,0.00692468657528469,0.0022228823457603
0.0294361966648657,0.0320855831348891,0.00769626073978664,0.00257233976951135
0.0765841619551109,0.039652074983881,0.0100892625871847,0.00291914641036633
0.114279797663658,0.0322545239646121,0.00961864393657634,0.00319610470170003
0.0743651083640104,0.0389043758913686,0.00749923824624761,0.00242405010462169
0.0535398996619248,0.0410174734386228,0.0087051117513229,0.00300262748610101
0.0313253171300738,0.0436269489061448,0.00859712369824964,0.0030979708507341
0.0188589690019257,0.0337843902452498,0.00823415141865558,0.00971476048820844
0.0214770638210771,0.0455063214045226,0.0100150031067665,0.00977860807898436
0.025140270689808,0.0459586003569272,0.0110394436583095,0.0112566915501303
0.0241876441923047,0.0470212515087184,0.00973858935210251,0.0224286029677157
0.0325463188873001,0.058221983534323,0.0100311504601628,0.0199462031937103
0.042563974289326,0.0511427760158762,0.0136012469136289,0.0338031586524713
0.0589267086809494,0.0475295520797332,0.0131201772969849,0.0516757280710566
0.0351630566953079,0.0533598379911733,0.0133163082915913,0.0403237696994038
0.0255388237164911,0.0469797760418622,0.0174959561880111,0.0391096428758845
0.0348416884435847,0.0429986550732885,0.0120692682088867,0.0349218386904293
0.0809615445017129,0.0496121623392577,0.0124764657040812,0.0440228255577227
0.0630912470883914,0.0546220510660777,0.0166536580078901,0.0369242896899144
0.0549011888584147,0.0654710343042098,0.0168622023258526,0.0365390347835684
0.0238447550645038,0.0699374382927218,0.0188761298501467,0.0433306164079357
0.0276400469942858,0.0630600287627518,0.0141442226951843,0.033104267553919
0.0331249724064666,0.0591363855010051,0.0195923637966345,0.0443018868970077
0.0387718300474546,0.0601875906279499,0.0327008213690198,0.0363111637064666
0.0402754393363807,0.0974315152317255,0.0225110711979053,0.046421376585038
0.038572396181432,0.0997616660118745,0.021280334574644,0.0445362171951203
0.0332417351350724,0.0681987189830827,0.0181467338211229,0.04966799257357
0.0352602683645366,0.0751259958305215,0.0175753929431008,0.0464601117856797
0.0391687470438675,0.0687863701887743,0.0199857941602825,0.0459215850865391
0.0357267077308629,0.0638476817898912,0.0247975777578067,0.0609175512161074
0.0398370853265172,0.0443694527803485,0.0187754518834709,0.0326053407152749
0.0452175320598393,0.0588711327099508,0.0230361696551962,0.0377251538256681
0.0264168635373674,0.0457893486877356,0.0233105365398729,0.0375099807418636
0.041053833462217,0.0502503509751324,0.0279772001692034,0.0294066603218458
0.0381553050212059,0.0553881815202094,0.0256672361228795,0.0383675836181163
0.0292210815655341,0.046378962329656,0.0236793708018301,0.0370024559822479
0.0303769319302751,0.05293505578272,0.0204687252447256,0.0242073848483856
0.027458761710369,0.0496137722768111,0.0151238485970183,0.0205283049442157
0.0384255936508791,0.0436308372494684,0.0125230500122232,0.0250980931658367
0.0266478911170331,0.0476318587510353,0.0163429183980514,0.0240223499369805
0.0293257533947647,0.0496714713811161,0.0159892944962683,0.0177245163945463
0.0235956690253756,0.0498952314812233,0.0136659456265067,0.0234263178142089
0.0261721242924842,0.0478857144472087,0.0181889429064415,0.0355712062278478
0.0312085114151106,0.0633097113281189,0.0146046459528149,0.0257098108556202
0.0239724135424127,0.0407784507341432,0.0168559337049682,0.019803150395819
0.0282511063624438,0.0524580116327733,0.0164927618628837,0.018476327598933
0.0241668312208428,0.048747981468982,0.015746728770397,0.0154563644250862
0.0252344494911115,0.04419625763705,0.0123550296886104,0.0174108584033381
0.0238296465219182,0.0461266383722838,0.0108589116271644,0.0144915615672156
0.0255437861473544,0.0381299572796681,0.0114890501236785,0.0144577340837093
0.0256051643969635,0.0511048331161083,0.0088220326211358,0.019119425645005
0.0253994064929823,0.044100464422804,0.0156783723543719,0.0228159584700653
0.0291306167296786,0.0519385756402239,0.0128547766752818,0.0277421553990263
0.0303203268885002,0.0496613823528823,0.0126444804988655,0.0112377721643629
0.0212544323245365,0.0409275688505658,0.0164608804962936,0.0172500326456486
0.0299366721228416,0.0517677849324349,0.00863165019740427,0.00964866776427426
0.0310330764024093,0.0604279188164572,0.0100314126123883,0.0150712324576426
0.028334408073469,0.0556174530719351,0.00893443982005285,0.016738827252359
0.0247654318569096,0.0609983002472413,0.00905910842343456,0.0137980841374223
0.0273654405950341,0.0648462577498918,0.00720268862113955,0.0123246176065712
0.0294351183745973,0.0662016045951025,0.00970235617937054,0.0125610478570537
0.0279286021206147,0.0686682130217189,0.00833662509067185,0.0176599695201801
0.0274154917116727,0.0759924860549125,0.0085173438354313,0.0139968414118022
0.0228163888515059,0.0614424723555019,0.00663731603578783,0.0153012217068427
0.0284327660448492,0.0546467747859159,0.00715589118378093,0.0244799672797168
0.0326876437626775,0.0810963873713768,0.00768358091678495,0.0211800347612767
0.0362622120228147,0.0664990584329712,0.0085002724645838,0.0191323190031508
0.0271164266384369,0.0746696849447877,0.019979728201929,0.0235105847384513
0.03670399851127,0.081900521494778,0.0260810025094766,0.0267137348801493
0.044507423397656,0.0843593452507218,0.0178791590902596,0.0185718272462324
0.0388311440612803,0.0648560345868616,0.0112874025969114,0.0273413191875831
0.037920382371532,0.07456771306096,0.00837558103113187,0.0152477779723415
0.0439762574068572,0.0813931129075059,0.00842301609579598,0.0235439002181769
0.0383659033896994,0.0850543272394293,0.00928123914379565,0.024127181449242
0.0451184919955276,0.0697656587935727,0.00931763037152604,0.0189082592467264
0.0590136369935598,0.0732250846806028,0.0113604043759331,0.025685109917095
0.046696582548015,0.0884428836504542,0.0105114130653389,0.0212230673778544
0.0426474417207809,0.088029185788817,0.0107106795668152,0.0179246946093674
0.0503231785208197,0.0886953672876402,0.0115087600707864,0.0212272635436194
0.0587417380826874,0.0966209163864135,0.0130118418574262,0.0331905144343048
0.0703020646122341,0.104484775126647,0.0130493611004098,0.0284286426415936
0.04757109383101,0.094844113875448,0.0139494091856746,0.0262150393011218
0.0571759691036336,0.0966758204764547,0.012572627806833,0.0286089294210566
0.0581072575334461,0.111758234573687,0.0102467599030655,0.0271982821162146
0.0534330677896353,0.100405732623656,0.0118157313125948,0.0387095549852151
0.0648074127496069,0.109160299195976,0.0123063468517045,0.0360909090632184
0.0611514892526854,0.0913855183725147,0.0140631001584754,0.0347235948870407
0.063455784465797,0.106392183187154,0.0118529099888686,0.0337259421826756
0.0660664089822106,0.0840621536651298,0.011675422582754,0.0303491416207444
0.0554392701820927,0.0969322175815306,0.0107614263980907,0.0328003604218393
0.0528441553295731,0.0868393550085074,0.0117147574737159,0.0397274049802439
0.046764341934816,0.125876461658999,0.0147858576088426,0.0300417380770041
0.0734055718692497,0.10092352527404,0.0144947449213092,0.0331142490390471
0.0475799171107614,0.110977950729774,0.0122116197491032,0.0388159342115931
0.0422607368292396,0.124993331553744,0.0143222757134297,0.0339895738510338
0.0621809411764785,0.0976929845487414,0.011281273261291,0.0354571008561952
0.0593060494658676,0.122811994680753,0.0143844628624231,0.0294015978689008
0.0653368357498557,0.11806336640658,0.0153932368307646,0.0305849448310663
0.0408218831052009,0.0719537888380046,0.0108310331757478,0.0289472877758508
0.0510452448102859,0.117012210930007,0.0135809486187241,0.0257960137576313
0.0398517048213097,0.116349976987504,0.0137277021834466,0.0345263357834871
0.0499512763957301,0.0971866623724883,0.0105174043447801,0.0303330815031088
0.0442703899600658,0.10621556963367,0.0146086318186467,0.0251608576759844
0.042234911363986,0.0724271165165324,0.0116815912777629,0.0363733096858542
0.0460387103746317,0.0786360368555827,0.0151914209570957,0.0259751508926906
0.0451000559502927,0.0680186440537141,0.0125895286024637,0.033022203511442
0.0579748112135478,0.0840006852149418,0.0107541371192429,0.0262713817199727
0.058404539599685,0.0735724299173204,0.0108153893369037,0.0307933714991402
0.0506635508432395,0.0878816357114106,0.0132186445461099,0.0311415938557351
0.0659170102051027,0.0683835460552784,0.0100399340318545,0.0225585915914638
0.0459357474021593,0.0654897714749628,0.0107964351739845,0.0328644894416926
0.0519274538351948,0.0797098964924913,0.0113152519815425,0.0273796915062318
0.0437350841148523,0.0702619899145029,0.00862207554320809,0.032210441849272
0.0445084073832688,0.0727105823834551,0.0104651313166839,0.0282227392278457
0.0479404803809887,0.0762653864911686,0.0115283313289935,0.029342629991324
0.0147445001715077,0.0540828084779416,0.01291117981293,0.00267432006146093
0.015058312340651,0.0543230954602385,0.0115059006059202,0.0022949436583133
0.0145888335804401,0.0499280983199174,0.0112810467712329,0.00238982518733342
0.0146627617629769,0.0525887975480852,0.0115181096561202,0.00218696750865861
0.0126172570954627,0.0497682386631839,0.0105325707544439,0.00237349196214456
0.0128809449592495,0.0541206632272095,0.0100769996643753,0.00210186762002628
0.0128771132522618,0.0484426465978244,0.011015993489622,0.00226114612859398
0.0136063023085182,0.0535449598760654,0.00949121950438532,0.00208018716469551
0.0144240623296829,0.0419601317149473,0.00997774844817712,0.00301328626548226
0.0149732101065283,0.035696211792024,0.010173849849725,0.00243462000806098
0.0127105566646176,0.0535932982231615,0.0150357925952192,0.00265224269654684
0.0152460265230242,0.0461424648130686,0.0190976356427159,0.00233267305375391
0.0144640667384954,0.0539788317076852,0.0179655709335449,0.00239814643295666
0.0147637721872749,0.0445671692163212,0.0153969442695097,0.00233726368027874
0.0153383947361571,0.0566687908251888,0.0156414928042774,0.00338526970827318
0.015777235783083,0.0462557864794924,0.0122794633374849,0.00293398273403732
0.0156676714180437,0.0619666506582306,0.0165622921848162,0.00291125058858509
0.0132341889594388,0.0655097806051546,0.0153571152515707,0.00452182620624782
0.0153119553540476,0.0682859725455186,0.0127761361853183,0.00543679987784713
0.0133350920566824,0.0661284756968393,0.0151512347723267,0.00400423574564377
0.0175493383308721,0.0682932177585058,0.0135318073162491,0.00341516249613778
0.0168878328560509,0.0819799417282745,0.0146127833588809,0.00224088232345195
0.0170674841682268,0.0823713799569612,0.0123597235373771,0.00263554287176374
0.0178150090182325,0.0754072342503738,0.0106680050187692,0.00250521125862523
0.0241679425744316,0.078762121068241,0.0111848203681623,0.00269446097054984
0.0235508551085578,0.0858365642361163,0.0117794383416393,0.00253626950860139
0.0190011514706085,0.0883017205545834,0.0139852850168456,0.00454398459407222
0.0194207573084538,0.0848978844789039,0.0134351332612295,0.00265076995654835
0.0231591039128011,0.0947555270071129,0.013488120044138,0.00454542294613354
0.0195839889094914,0.0990634535916018,0.0135750544265194,0.00358873004737401
0.0185042760076406,0.106712818686449,0.0115550310425677,0.00338350597476995
0.025539833604605,0.0881842069874051,0.0146518769017504,0.00391150093759644
0.0255902973007948,0.0793509881438322,0.0190525595860532,0.00272620251211409
0.0293998631660954,0.0782082700233223,0.0134410488801363,0.00215089403004896
0.0257536923522141,0.112728847760913,0.0120082123824259,0.00368473060978889
0.0403084736992973,0.158360484337697,0.0260776871914209,0.00486296174018746
0.0353254889443896,0.097627583864312,0.017233135776601,0.00281538984953745
0.0445936719514055,0.114599483962298,0.0208396269220637,0.00448699008173173
0.0413210244511015,0.104642112341533,0.0141086707839622,0.00496018129336324
0.0428796609754129,0.139883143581097,0.0213845392716623,0.00559551325790773
0.0386169385599527,0.127341911041881,0.0225618129167857,0.00445195317516682
0.0302869423310609,0.0769016645619229,0.0169441470143509,0.00509992515465009
0.0510328879105497,0.14801231198175,0.0322338063170636,0.00573895401292142
0.0353606129195449,0.124156672231999,0.0269659588360881,0.00573124320479115
0.0448193300301344,0.147376165989096,0.0269437873072654,0.00690666473558623
0.0437552933726648,0.142210084874841,0.0269308703904545,0.00478141137529612
0.0514524945851912,0.1548643172097,0.0465974290500607,0.0102784904810607
0.0519969187299784,0.154882418329104,0.0370069758729225,0.00783352768293435
0.0442100271147103,0.122642707853129,0.0279100035059063,0.00808916906617206
0.0529126030823394,0.151135284995347,0.0397636245453682,0.00604345037714225
0.0502744096301861,0.170395801845913,0.0279710489071102,0.00646235628497814
0.0449277507994439,0.143332259826966,0.0348218154077501,0.00495292679970907
0.0419335251841358,0.137740122245298,0.0285861181757728,0.00664537620412425
0.0339533600638883,0.119588940929133,0.020344654950939,0.00503618133277994
0.0437242816415966,0.137040005765663,0.0224912575882683,0.0051512884767929
0.036119279437864,0.16962423352919,0.02558590546821,0.00537347553353787
0.0457684327737837,0.120118937977893,0.0221184405146092,0.0052972717703358
0.0357104122101809,0.129457407100018,0.0195201167665691,0.00550573980826743
0.0417012279389262,0.167379609356486,0.0193486459220618,0.00425254515233637
0.0436430227883513,0.11656912081305,0.0256649706177434,0.00405506531289148
0.0316753543833713,0.0475321531215831,0.0236362165600727,0.0210584234193234
0.0337470794699482,0.053232549324768,0.0223017245400063,0.014209194243741
0.0307603056818416,0.0449061504141867,0.0219897480194722,0.0195591040941027
0.0293589534979336,0.0394451900491933,0.0187336079717661,0.0151763583380907
0.0245732558024085,0.0460599123563604,0.0207482420628487,0.0141106499826366
0.0254881096739096,0.0405441954618266,0.0188637844956656,0.0140045974271637
0.0284338579997712,0.0422833191584225,0.0191612725120291,0.024973847233389
0.0250432428357465,0.0469275005042871,0.0230091916271322,0.0189254781965389
0.024047006749562,0.0426364385983053,0.0183657857420616,0.0153662686484527
0.0273425719261739,0.0348022236937919,0.022384187825046,0.0122948111625556
0.0289461947175915,0.0405074674955487,0.0201412284597696,0.0133359176337601
0.0256460808216216,0.0400014670518583,0.0219350619605555,0.0212219923367809
0.027476605987302,0.0449274414504182,0.0181342480193109,0.0145403081858294
0.0326975501795796,0.0442769092573182,0.101630394141986,0.0242959559337869
0.0282119832100904,0.0336484811418152,0.0957030583800775,0.0120191391551221
0.0403266528188099,0.0769385928237307,0.0667350105420959,0.017947936009067
0.0175062307983313,0.0760446103296142,0.022906358373912,0.0183079249625667
0.0261531151440918,0.0428379903234283,0.0182560226721754,0.0144130500535361
0.0233003311886487,0.0405536586939054,0.0188026842817042,0.016436098827629
0.0217617719514463,0.0324939611842288,0.0276237056106187,0.0177240542588597
0.0290160621113555,0.0350799616196801,0.0141811301549391,0.0193409561883863
0.0175501175227284,0.0386065737589139,0.0224311027360312,0.014473082920362
0.0187713419909626,0.0382362192923033,0.0177839442589248,0.0195346404441713
0.0201412423357767,0.0354264608398124,0.0194873002597152,0.0199349081018036
0.0188240270706182,0.0346487036635427,0.0145705678939078,0.0186586762166146
0.0210956247076183,0.0298012792389257,0.023983269970757,0.0267882067920905
0.0233587826851742,0.033297175193095,0.0247966951944464,0.0277342161354821
0.0192025077797115,0.0295387923168403,0.0237839175044391,0.0278698277258706
0.0200433625912019,0.0325509377312157,0.0237682399585464,0.0267408491832472
0.0382936341526174,0.0346739905952472,0.017917177344165,0.0268045880203847
0.042485684068516,0.0441224070359447,0.0239377818863234,0.0349125072870082
0.0508379127039403,0.0591431327595341,0.0270229949367586,0.0406674061597417
0.0578407229102887,0.0637335716247862,0.0310411998449358,0.0410097732234774
0.0556177202832418,0.0602457128507234,0.0271393918294732,0.0475654715195982
0.0757580257589915,0.0628029164981182,0.0240420915546526,0.0458184063751596
0.0523951012600113,0.0565733125030834,0.0502295113931062,0.0298705665212173
0.0664482512510546,0.0692446113170872,0.030938183945825,0.0394939800776902
0.0658964699663887,0.0689473992865108,0.031427101962828,0.0376237076084766
0.0622446924379763,0.0767478457172106,0.0201786564628592,0.0381801894662816
0.0379338488547983,0.0585520340443622,0.0290463675426493,0.0500649080626316
0.052583155336454,0.0503086742745487,0.030555846599383,0.039544772450815
0.0554455881693528,0.0519056892226977,0.027680189624269,0.0377252281164951
0.0638305960634685,0.0559594379033332,0.0209271583259627,0.0414542794826865
0.0456536426315575,0.0524006955250423,0.0171593362750485,0.0436994985925909
0.0510310432149729,0.0581225103497937,0.0181258362919204,0.0387126157816916
0.0586737641185985,0.0598565182935422,0.0255757391040549,0.0415959144082272
0.0496326092038681,0.0583551161526343,0.0210875505004243,0.0350898363444879
0.0563642345224491,0.0583558528467798,0.0281196878983831,0.0452429257449334
0.0465849103871999,0.0580793808007325,0.0263315295291655,0.0546025811968164
0.0523078917377849,0.0483185059337055,0.0184363928859741,0.0317687170649542
0.049964398165512,0.0560570947113491,0.0168625743150721,0.040519577924443
0.107434507731572,0.0513352034760767,0.0269065274809964,0.0424405407483909
0.0956115074481536,0.0539391279296064,0.0222368714663588,0.0575103978308886
0.0678782462834163,0.0618793028877357,0.0285314774094352,0.0404344914423254
0.050127272733858,0.0586192280699155,0.0253283109112817,0.0428060110100369
0.050396309479407,0.0545418502498343,0.0279185177657651,0.0343714910662454
0.04756789215228,0.0526535204885719,0.0293816402019024,0.0528204590412101
0.0521998644057273,0.0393070484846261,0.0208918900865876,0.0443324222601455
0.0372672199615141,0.0498378379360324,0.0234817941199406,0.0325794326309963
0.056577286416245,0.0509066369296845,0.0246230778385505,0.0376675349323305
0.0374226471507888,0.0300029405983401,0.0136701839350374,0.00399070466640673
0.0265405057735018,0.030870310139031,0.0173554786768272,0.00330056717228341
0.0322125908063499,0.033861914518981,0.0177157817625002,0.00342737952500579
0.03097596508209,0.0293185752831444,0.0141344412563292,0.00362395051980135
0.0317373103765532,0.0339114063712196,0.0153147925245898,0.0036139385519144
0.0360141389743723,0.0314351761767632,0.0158387448791927,0.00411767293768281
0.0326375958574709,0.0267247998089086,0.0152465988021117,0.00350110501471937
0.0305180961225255,0.029385857815349,0.0149992052253717,0.00444827839540401
0.0267045191351791,0.0362104976992949,0.0168348976039825,0.00640102509617442
0.0306553563710808,0.0282610851270143,0.0129772086536854,0.00553792776370189
0.0265960253319464,0.0358080917366124,0.0161710660885024,0.0102812391511905
0.0261593865156195,0.0348169703347885,0.013634332335102,0.00916686860449614
0.0206346693810206,0.0309426504776224,0.017118664175777,0.015737466918349
0.0243741779372767,0.0322462144567834,0.0137901988557486,0.00844028120390589
0.0179092347686146,0.0485771707930819,0.0122231629734443,0.0127474884921188
0.0229381491820874,0.0360731386337829,0.015254889880592,0.0173603397483852
0.0206577980594638,0.0405617823677202,0.0179037657718681,0.0157192024594242
0.0216043481520558,0.0376183409712699,0.0156920678203074,0.0172207244642353
0.0125560907898047,0.0337769566793158,0.0138297782996692,0.0249397758330622
0.0222703434171925,0.0378871978040295,0.0111273494586851,0.0195442927397512
0.0164297028199241,0.0318299410014247,0.014999679820299,0.0239579207338781
0.0135462793947264,0.0363745849563199,0.0158652819995773,0.0193893003696759
0.0140550890278764,0.0368342873015128,0.0133648866959296,0.0224335980260825
0.0161011098894739,0.0288146862522295,0.0125966455994452,0.022427052130972
0.0200929290460282,0.0377229411408049,0.0150993377141315,0.0258802764240184
0.0116893745817911,0.0429890975016828,0.017882169976931,0.02165524222228
0.0150774848729504,0.0348897524341499,0.0156616429411644,0.0245944330888832
0.0199621692750401,0.0410542995341572,0.015711529148418,0.0206986215423461
0.0234465332236238,0.0458591956417999,0.0134408829383827,0.0268118505154211
0.0252935651642958,0.0477201834592491,0.0141046429251723,0.0197158965198945
0.0270096016569825,0.0429006922917562,0.016472665921247,0.0212224881256995
0.0213793436128655,0.0383615727793422,0.0145318603730326,0.0188548938429104
0.0686739420189565,0.045201827892791,0.0182663360946959,0.0180702100447441
0.0579384528465636,0.0559720430862288,0.0180903425011858,0.0173085567818923
0.0215013698609172,0.0605947280174654,0.0150965481934328,0.0222809812979063
0.0169032562930793,0.0575897489198065,0.0155468016183361,0.0193869022498006
0.0198131068682349,0.056876077806262,0.012333446659851,0.0138892402720072
0.0197791477139511,0.0437998846090146,0.0175887481749212,0.0157080235220997
0.0253961082895512,0.0508683407367336,0.015795149405733,0.0197178795286412
0.0257762188554055,0.0484409823716741,0.0147266211129683,0.0220689749966202
0.0260905483869756,0.0450835020084134,0.0169682603937633,0.018141307769982
0.0228002139071428,0.0506953183491748,0.0123251757810101,0.0171396591228404
0.0163141000168144,0.048772622319825,0.0115573131552053,0.0179951766350034
0.0174105613439715,0.0435378941698834,0.0109667428444135,0.0150799076002622
0.0147227863698497,0.0408640558605284,0.0107503355472783,0.0160521275634017
0.0203982241990436,0.0452714711447125,0.0111426984576671,0.0113347268381983
0.0155953837459642,0.0383143526346948,0.0110119304413492,0.0183126950869877
0.0205247495782694,0.03859534701094,0.0110981940502792,0.0170503204040477
0.0177048370624317,0.0452132547160367,0.0125517722247731,0.017484061155488
0.0158103288497148,0.0356602707006252,0.0109056173975449,0.0133533969125582
0.0160174433524397,0.0446966411283973,0.0110792976066842,0.0117313677474211
0.0177765176309924,0.0399571049320889,0.0133139204199161,0.017376945817993
0.0145319058509845,0.0382113277863432,0.00959361159888067,0.0174598468549814
0.0145221769722472,0.026840799684323,0.00878633181477085,0.0168444680081672
0.0149410319306874,0.035875559005145,0.009310130590432,0.0132348671229225
0.014986909314418,0.0407858288009338,0.00975379550512643,0.0188828593177835
0.0160541317094505,0.0310072556246326,0.00812492145059833,0.0254734111836329
0.0146598865909794,0.0280403036518596,0.00922799698782598,0.0206389757108216
0.015204010113802,0.0350320678038346,0.00993925975317394,0.0211422849765595
0.0165180452147201,0.0403747172975216,0.00912386529894156,0.0162027194716347
0.0342629875895635,0.0417998430485906,0.00692134637556158,0.0140143760559064
0.0298305824243147,0.0491600738791419,0.00894416751826034,0.0115664107862949
0.0325338741767076,0.0449961031306748,0.0073443085073935,0.0127630688507038
0.027719768086331,0.0359253875259704,0.00930207389322711,0.0158671772921007
0.0341789318352092,0.0473886518637521,0.00778329093058927,0.0118801699640034
0.0336438006313597,0.0436555685965514,0.00724963211443549,0.0127127551416637
0.0425647015560392,0.0505943264168479,0.00651158845129459,0.0123038649365917
0.0275677843291038,0.030618909316351,0.00717625708896808,0.0152473020002481
0.0396904096051709,0.0396048414074333,0.00917582854707074,0.0164124062550856
0.0398984281581296,0.0327714656436226,0.00714150137387075,0.0102148353395012
0.0382869952294319,0.0379522535067633,0.010350676267917,0.0165862135058065
0.0250017502643108,0.037124802456111,0.00776680252411041,0.011308466003679
0.0317095175696865,0.0369505317565109,0.00843395929099287,0.0142348118640263
0.0391246533943672,0.0427232794685867,0.00805964640534681,0.0155029040360754
0.0204995163890335,0.0386340519045204,0.0073397647288953,0.0131356347768359
0.0334298962698516,0.0348506646805272,0.00779859933656997,0.0102800235359934
0.0347059913180157,0.0387166190166116,0.00922182882539775,0.0141119334596596
0.0290079553382859,0.0355527446719498,0.00955049592378057,0.0113575601083692
0.0316666938313374,0.0342879604771443,0.017118282624804,0.0145175055528574
0.0256450280644609,0.0428533335953403,0.0198894854094721,0.0134024307860778
0.030168523431136,0.0452441980936335,0.0109774374343598,0.0105176753451968
0.0240732692556698,0.029577640807595,0.00935319951904776,0.0204656274353911
0.0276673297287453,0.0474561971771683,0.0137612502645034,0.014011970221262
0.0269832405093239,0.0403719644544831,0.014011562011083,0.0119167543803156
0.0272442460398339,0.0452182641464527,0.0161649659316303,0.0159263078211567
0.0234757327919889,0.0415115434611758,0.0101000739122308,0.0168062374118566
0.0334107369051234,0.0531468910735547,0.00948680693013668,0.0119919609150789
0.0209067340296337,0.0463506272220879,0.0110103764663493,0.0107702377296806
0.0272032765549875,0.0494722351636714,0.00855608309955611,0.0133333014541272
0.029387060568505,0.0426624757286165,0.0112970921534091,0.0156095090857113
0.0408190367588943,0.059751397628917,0.00842611768583874,0.013125659987099
0.0383660509101405,0.0550904852075633,0.0109443861211258,0.0140755871161301
0.0552177070097306,0.0813257641340985,0.00999975597179157,0.0163370981620322
0.0420623806317596,0.0520469853513333,0.0111300070424478,0.0135955294926313
0.057269156977781,0.0647319088288163,0.0102642253762711,0.0148803053892211
0.0590084170105982,0.0653329715316248,0.0109659721714496,0.0189447132458163
0.0512874771063822,0.0754296323663541,0.0130950150343087,0.0139741452175933
0.067598320894995,0.0781532757501652,0.0226189717338338,0.0159723122474034
0.0533142643796718,0.0789508372866067,0.0164444850039463,0.012360545551484
0.0558898220211168,0.0595507429204115,0.017244331075898,0.0177251082855216
0.0421203284505818,0.0707893437371917,0.0130435935851113,0.0186039738613539
0.0592141847758167,0.0665955844203438,0.014375643947922,0.0179070770522535
0.038550498661382,0.0630140990491668,0.020200160205206,0.0132646456643565
0.0465719257011364,0.0768887529204747,0.0190761729420684,0.0153299769311547
0.0455109680928253,0.0680791873726149,0.0138394266397062,0.0116101788814328
0.0461505516157162,0.0785603584952565,0.0166246369795255,0.0173668398892044
0.0477030265636784,0.0618322070692494,0.0129894816748821,0.0152469445745354
0.0541058536333749,0.0797926800951197,0.0179417035220157,0.0162629070731618
0.0457306253156789,0.0638859382687995,0.013272302494161,0.0162102751724744
0.0404782181259219,0.0591911623264571,0.0150990508336983,0.0165169692504299
0.0436334520490651,0.0669082783709001,0.0127529565045101,0.0123785150194373
0.0483449141355756,0.0665666429448822,0.0133015944944492,0.0120210152473862
0.0504142178140283,0.0711706603328534,0.0105169269275468,0.0134349846664485
0.0456677085792984,0.0622298709628591,0.0129519933219398,0.010762736526952
0.0360992230351177,0.0828823225135518,0.0127631012948145,0.013833798988923
0.0389353133208611,0.071420829521869,0.0126721873862222,0.00891651608822101
0.0478084307781092,0.0508433473667525,0.0110497245545806,0.0112846147650345
0.0412125467085501,0.0666086563564802,0.0158405557374199,0.017257629833684
0.0426752394427588,0.064398745832602,0.0108431102039218,0.0151654769461845
0.0351872751563745,0.0741961523057172,0.0112550666258337,0.0110637425249752
0.0185733753990368,0.0355917653996908,0.0120418324554357,0.00567223877640704
0.0188787176547048,0.0323914970107953,0.0129077554912067,0.00543822214183147
0.0208809013108917,0.033590619328256,0.0124899690154497,0.00650835232917519
0.0194213669266103,0.0405418814861593,0.0125180333172083,0.00436610956488056
0.0198475109640928,0.0373737606485141,0.0106202832049302,0.00651893403900064
0.0167533083186174,0.0317620151637764,0.0137393113303936,0.00569074558427847
0.0179754331098584,0.037967934297987,0.011722871655717,0.00384128349639659
0.0162585626762846,0.0344279542966549,0.0125944483609867,0.00477000977745268
0.0222780819401857,0.0390852440102057,0.0139446204878992,0.00662236069001308
0.0156889761644009,0.0317017769368479,0.0115675306322138,0.00390704109654202
0.0173541794503852,0.0302830432090427,0.011570221356416,0.00561185291375317
0.0175469387863439,0.0350571038062739,0.0111919122513746,0.00583168944472867
0.0133284556860867,0.0322601411177925,0.0102300026781655,0.0108419734995915
0.0120776303428611,0.0274580709345187,0.00987004465978259,0.0121260042112315
0.0167841765543149,0.0338700765102045,0.0163187216346455,0.0079117619335477
0.0143139848096074,0.0327580834017305,0.0155162739006922,0.00829440848873844
0.011627749978975,0.042033322391785,0.0128969043880875,0.0188105229504151
0.0138055444346482,0.033869043568598,0.00896203447751431,0.00819598629444645
0.0154830535466621,0.0427808694045125,0.0117120804487455,0.0118343264929938
0.0195595984651736,0.0565424877501354,0.0078432155342334,0.0137713426237505
0.0227055781183274,0.0420281682930084,0.00870152138122502,0.00963867523400221
0.0228729471803378,0.0523868734223456,0.00834902158930829,0.0045997225223436
0.0232272133352642,0.0669226498509287,0.00691542851230058,0.0059529784094084
0.0309835308499339,0.0616745751540934,0.00702727087005051,0.00796228055008682
0.0343035435031307,0.0752266269732343,0.00871511259637301,0.0103850782473249
0.0479623310895204,0.087835089319496,0.00822554542709075,0.00866643970990056
0.0458673749525603,0.0869864996414098,0.00898226571405335,0.010344932705744
0.0467848879854402,0.0955031394348442,0.00899333970439523,0.0121808165117115
0.0402166473583657,0.070770769316127,0.00834606138928222,0.015956764088394
0.0420562381923031,0.0768742739346183,0.0123464961669892,0.0109313802423029
0.0421467036572914,0.0760574840309589,0.0101013387979521,0.00968333534696729
0.06003208556165,0.0949685951275316,0.0108410578928062,0.0109564120292334
0.052589620569466,0.0856450010780985,0.01177897039015,0.0115460682119168
0.0448749724398831,0.0716727977905574,0.00889680906242387,0.010576044681115
0.0541533661317289,0.0768802968797346,0.00883023418260463,0.0114886263106833
0.0537594115226866,0.0780518213918836,0.0126369042574275,0.00937921727295911
0.0487843554346227,0.0565188376015391,0.0158567816065174,0.0104621229746742
0.0503013208305167,0.0659088341344049,0.0123097331016863,0.0203760731798269
0.0700597879099652,0.0965723067166256,0.0126166820313145,0.0205752453514583
0.0527399988638648,0.0651308966588528,0.0131572133943757,0.031546390342267
0.0621298127250361,0.0638315623812329,0.0133433958158128,0.0192113302468538
0.0649422834611446,0.0888462497934671,0.0156636371165791,0.0320380116028161
0.0611515056225442,0.0791442471630356,0.0170833439313401,0.0327859326800279
0.0709852082700651,0.0860366760247834,0.017299721145949,0.0386335302776187
0.0589075502007596,0.0730718187130799,0.0177078465645482,0.0427023999034872
0.0711604662664437,0.0782957762638828,0.0274717417315455,0.0347232204607641
0.0733566344576845,0.0827882420084525,0.0307751505171611,0.0536567587914835
0.0539681789198901,0.0796994722575311,0.0247467264634949,0.0547400902275565
0.0888907680957299,0.0846932039067812,0.024953964726287,0.0538553119078147
0.0658761443387378,0.0949076328405705,0.0258001112971976,0.0513408382727744
0.0616244504190972,0.0795339064184009,0.0367938687108976,0.0460605411630872
0.0817967386944171,0.0815042281534722,0.0258563546681214,0.0393779086407757
0.0669445131658354,0.0710758665007059,0.0330453511668944,0.024361609355238
0.0637587313221287,0.076467277304594,0.0452435856736774,0.0459271369645776
0.0647067454191072,0.112158950310397,0.0408715023584384,0.0175302087715244
0.074902802558418,0.0740771194325437,0.0302944410131226,0.0291584567887779
0.0737368001224685,0.0915656059135787,0.0256283156662619,0.0158920101445608
0.0539067687169144,0.0862907683720178,0.0258962672698427,0.026488409047038
0.0846110264985565,0.0823495802356594,0.0190909143919987,0.0349648654695497
0.0553302276949763,0.101727049285023,0.0184889013200097,0.00969025027165873
0.0253238145859933,0.0371439420844843,0.0153057274111213,0.00645042124109613
0.0282253391165173,0.0284338662640729,0.0157956847653105,0.00724448968662465
0.0332212473097717,0.0312341527350427,0.0124620812684622,0.00718788040650493
0.0292676316366771,0.0288863691387711,0.0148222660038317,0.00687161738156447
0.0287266868899425,0.0313917861674028,0.0119981262230449,0.00580886408307504
0.0215251794306514,0.0310968167301751,0.0094454913218689,0.0051691977694925
0.0289546900097367,0.0319689498123695,0.0137653302449055,0.00557934479455911
0.0286023431134481,0.0280367117535458,0.0121892043791376,0.0049420178892246
0.0255010894401816,0.0286270746087641,0.0122876210829518,0.0053517176712225
0.0251362992616169,0.0228800534909254,0.00940679303658849,0.00419610780684933
0.023508636613628,0.0347786500785497,0.0115263653962108,0.00492651661997595
0.0192966175491768,0.0262518515016225,0.00957016983567285,0.00467601666931582
0.026849804805498,0.0276179280905556,0.00845357063520789,0.00438742211464451
0.0343016744974627,0.0263206404328111,0.0112343088146456,0.00477868863024908
0.0229979715909553,0.0222043014013814,0.0098323315801911,0.00350268461769698
0.0283497090063436,0.0234212309474519,0.00906479014248768,0.00448765194689113
0.0375870289613136,0.0227783233522484,0.0103548890107456,0.00466401820660358
0.0340452574586631,0.0237101535799255,0.0102161764284516,0.00606095238136452
0.0260695576763982,0.0235587735434876,0.0109251767677028,0.00701933974094791
0.0331856723397522,0.0249919062994387,0.0116450123860886,0.00670880999439128
0.0367146895095192,0.0200181882422588,0.0115098567120693,0.0047056873196903
0.0357127292814365,0.032620399737085,0.0121729918000181,0.00654282672493675
0.0291684744945929,0.0263761687548669,0.0118302543503546,0.00638836782077576
0.0330280998110333,0.026887929263104,0.0118549543193752,0.00603940021518767
0.0305309652705081,0.026717676856299,0.0107984827682375,0.00819662109091954
0.0362017418430671,0.0217297499350606,0.0107370654194008,0.00712728586389281
0.0440411178321856,0.0297660680041009,0.0114040131735349,0.00909317414362918
0.0412932336631591,0.0275330833164337,0.0135933767262219,0.00786882943944648
0.0443436886082037,0.0304655349970593,0.0112300552538751,0.00743578397996549
0.0319744164941333,0.0312657110990284,0.0133653524764325,0.00623668113232243
0.0352874150805544,0.0282645833218485,0.0120666363312109,0.0109570681097179
0.0378682584746408,0.0232516727300578,0.0119128528064384,0.007904449788167
0.0429864256906175,0.0310230255647564,0.0122574374311103,0.00726364734819507
0.0376720500915225,0.0289151807954316,0.010273953813134,0.00635000948585159
0.0334325015910225,0.0313870035483271,0.0145533941095154,0.00797931397744153
0.0349841111472894,0.0232420242781046,0.0108487102211629,0.00586965216879982
0.0402601037358398,0.0291557154760638,0.0104888219919404,0.00663667869005835
0.0513008072228242,0.0258170189056938,0.0104605423818362,0.00732936440230318
0.0448105688856657,0.0244199610013116,0.0110058272262124,0.00794239102543191
0.0425201015486954,0.0233033668609988,0.0101768758912676,0.00701305161707379
0.0477155730159689,0.0287965444565436,0.0122682340635723,0.00709420778581789
0.0456126053450567,0.0310194515235499,0.0149126187655317,0.00663323142973512
0.0449590293297353,0.0218395286444257,0.010162449630713,0.00716546503293299
0.0460439188631608,0.0300726560607844,0.0120213907699829,0.00565464455481966
0.0366386130680592,0.0278424629074011,0.0096242320502949,0.00465711760277628
0.0428160016671663,0.02324237864149,0.00980753966062342,0.00450500834694829
0.0419929216158779,0.0243579596386232,0.0102641331649273,0.00548102706952747
0.0323524695688139,0.0311500482518179,0.00763733468377909,0.00485988851501859
0.0361208560604192,0.0221496428174698,0.00870670578254793,0.00441833104413115
0.0274210872781862,0.0335578249553103,0.00804601464758879,0.00552314999092434
0.042688943228802,0.0261268343764692,0.0096103576263559,0.00443813161599386
0.0376695434143026,0.0341019884581825,0.0121942215557378,0.00519610429481923
0.0303327080189301,0.0362531193369279,0.00972444613158355,0.00708521604856693
0.0400438715341614,0.0335763906231057,0.0100111302712754,0.00493632916615339
0.0466785435806094,0.0268952090345006,0.0108138366999304,0.00770676861692047
0.0486387244781254,0.0281332317087202,0.0113159709498016,0.00374110720024003
0.0404588484304868,0.0292787200426932,0.00845954918125762,0.00592147061651996
0.0529053604893444,0.0259396516475739,0.00940131940756823,0.0081802325030537
0.0408771411520515,0.0310228372693305,0.00982181182948589,0.00578117761054743
0.0571049095443041,0.0297505204077213,0.00907863862754936,0.00753912643286288
0.0143223429997122,0.0209970514005193,0.00793168183214124,0.00643061006477375
0.0114550881696401,0.017670721396674,0.00574039059949958,0.00675329720972966
0.0113923506075876,0.0212016526875763,0.00683106190444772,0.00576961313681113
0.0115178900393839,0.0192705796892142,0.00745061620206077,0.00722322880985565
0.010881966666189,0.0225282146014701,0.00547861636325995,0.00757659797553239
0.0102658857987293,0.0185397098084095,0.00631152137114106,0.00713406763294684
0.0125934744526303,0.0185904830912303,0.00621321733488445,0.00717506378817206
0.0124913115989292,0.0215484174641708,0.00697574337845206,0.00650275825720728
0.0112089535919109,0.0244756923344159,0.0083045979424006,0.0067233108714212
0.0150912789723061,0.0214973319607708,0.00814394363096816,0.00587255886359567
0.0148199800763802,0.0213410578442595,0.00864928599561973,0.00628740537634948
0.0115811636180803,0.022113518996575,0.0102715748792182,0.00936268273127146
0.0144955540738389,0.0191776627061894,0.00908993634173671,0.00785175943680807
0.0176409764869941,0.027314990704837,0.0105893789840699,0.00650397436372539
0.0145585131181657,0.027954166733807,0.0122781430979679,0.0123846278708126
0.0176696600432243,0.0281166147597964,0.0137393091723605,0.00910390520223517
0.013216092958932,0.0323789913406851,0.01042563657056,0.00860443782899024
0.0173723686006474,0.0277930029165734,0.0135760904363984,0.0065053725549208
0.0175210272986439,0.0258520339813172,0.0168921185767993,0.00615763882598711
0.022958415168671,0.0363469481413713,0.0136662709719063,0.00863801205396227
0.0171252863041332,0.0320376356323502,0.020042054323311,0.00670567435874327
0.0252835730832221,0.0242209231166596,0.0142494986168308,0.00673454091872595
0.0255828093062811,0.0561134383575474,0.0138837182995371,0.0101051585149645
0.0244689813018054,0.0226369091617489,0.0158158308127247,0.00576782013280148
0.0226919339519177,0.035784501982894,0.0122775399406322,0.00905946417109009
0.0254313319787377,0.0484721274165878,0.019224825914422,0.0106812575412941
0.0325408207321617,0.0338110817395403,0.0160008664631984,0.00735467213147406
0.0337883838351131,0.0339504639035857,0.0109667347477785,0.00573486252056686
0.0241344274469785,0.0384250047209407,0.0172805912238791,0.0072922778129369
0.022362741180033,0.0346850470876382,0.0115644456169108,0.00575739874763305
0.0377598570655083,0.036024546421549,0.01607312769935,0.00543487729791059
0.0244674971922624,0.0422917628277104,0.0149825632705562,0.0065845152480432
0.0309329673295901,0.0331646107488023,0.0163920145831805,0.00533446772884926
0.0304998309194861,0.0385641251298726,0.0160508169640545,0.00516485008692008
0.0308593551985856,0.0429718068677098,0.0149004263552936,0.00499547330930043
0.0275054066210156,0.0500741768747024,0.0171970239900661,0.00580942392270065
0.0295788094354231,0.0548053501322458,0.0203903667756726,0.0065822769780778
0.0367447812051246,0.0548721436241506,0.0142705254829647,0.00813766154651104
0.032562455290055,0.046801007170544,0.0315995892365263,0.00457924855083174
0.038905562510209,0.0500421361413986,0.0251962466656846,0.00765171133967113
0.0347808489297836,0.0417422643468686,0.014240425299864,0.00789658756597395
0.0377819437344027,0.0624044313910606,0.0206043063632729,0.00682164078032812
0.0324116052250458,0.049898861253086,0.0196286532503582,0.00482127927539821
0.0339802918296066,0.0574753406648378,0.0255433743925063,0.00658795268129079
0.0298329072974851,0.0519790129542148,0.0221062969560132,0.00714043017165037
0.0301783116727602,0.0469901700518013,0.0338408185194556,0.00475242762501316
0.0335926044754951,0.0513727149072718,0.0171345090916354,0.00545127802308358
0.038100094790779,0.0470962928746807,0.0150640555164007,0.00579623245999993
0.0339613784680447,0.0605173870588086,0.0143447360138604,0.00373895473177968
0.0269324975657374,0.0566318246433052,0.0150574258167403,0.00714889741727584
0.0308204155569156,0.0420888492003983,0.0147129064730085,0.00603130676233826
0.036187969184353,0.0612685223842271,0.0146960082926808,0.00540234713016062
0.0288085474581865,0.0455436747141281,0.0179414113217863,0.00635104547399883
0.0352069076252323,0.0453956772032649,0.0145157747385952,0.00738941686460641
0.0315347540151582,0.0634206479972887,0.0114514303653319,0.00595916798531016
0.0289267076551582,0.0509924762462976,0.0155085043600685,0.00448076203023851
0.0312967818414179,0.0577457896161675,0.0149372335905645,0.00540991379522186
0.0283451224645765,0.0427604436076066,0.0113875972009893,0.00628765972824332
0.0311584328678966,0.0552765654551309,0.0131244859840354,0.00620413596861086
0.0306753300696944,0.0613814291725959,0.0132089755478673,0.00566166985880094
0.021624604148366,0.0384024456191507,0.00974062624655976,0.00928324435241353
0.0277261218214564,0.0388947227898937,0.0114312224302124,0.00902550881170219
0.0311413360034475,0.0298951193566766,0.0103646431498551,0.010678356321019
0.0308076144114978,0.0331799796661423,0.0111008673509196,0.00976917194439067
0.0330989417003761,0.0290111224593513,0.0113356199238348,0.0127207298019866
0.0300433849993248,0.0312588094664287,0.0112589189613166,0.013464773906806
0.0342051449888092,0.0318984958974016,0.0096936997458991,0.00938590994417977
0.0315071907145831,0.0309342021307364,0.00843632200706457,0.0107765879141696
0.0273724762705259,0.0245639852982263,0.0110490405618051,0.00988418762098001
0.0220825536290795,0.0341819302982958,0.0107477208417742,0.0098929705213332
0.0325361145290202,0.0326370968684937,0.0104789133241617,0.012119969713843
0.0302124666175377,0.0306812714795138,0.00909754909403376,0.0104802626334029
0.0215312947199631,0.0271683204368483,0.00966603051980538,0.00939146407518157
0.0242790531070312,0.0355055124217651,0.0117502165617368,0.00797960916484977
0.028814792964841,0.0274205644604856,0.00774613707987639,0.00871980529909708
0.0291083987619093,0.0310097169967306,0.00943738177265562,0.00867420273908663
0.0256700862946987,0.0279367304639537,0.00843035220991204,0.0111358400355278
0.0237739292574612,0.0242229014240845,0.00641479731547114,0.0111975075716161
0.0252454133150344,0.024726733364556,0.00747921791761644,0.0127740375568743
0.024445040162359,0.0300055517644271,0.00882320637931152,0.0134971534170599
0.0267647215262381,0.0313495306035182,0.0102684701277529,0.0140691676475903
0.0251500847093982,0.0230188915789561,0.0146452347179537,0.0149219367707445
0.027523142977896,0.0300220970066649,0.0132797978279008,0.00885653944142078
0.0349250872707739,0.0329369151157646,0.0137493790461126,0.00886182002514838
0.0325565370521047,0.0282777610332695,0.0152709231323521,0.0110995561233978
0.0385976579666205,0.0503918586197525,0.015945186757186,0.0155816835547702
0.0374120767990319,0.0594654465529578,0.0154541918273193,0.0202260984478188
0.0456300138986254,0.0455818342325611,0.0162997911789424,0.0181865663566126
0.0455041024688323,0.0520761344156582,0.0176622694888944,0.0161828483226906
0.0611271934472611,0.0501523739392376,0.014758729723109,0.0225811628366274
0.0403193769329955,0.0550148309342047,0.0141554404448274,0.0205420457669806
0.0570938134504919,0.0682350797552206,0.0172258964933862,0.020890910361897
0.0524731482141933,0.0755961014563616,0.0154755376742008,0.0184272439707908
0.0496586928249879,0.0548009685319819,0.0157084860259772,0.0220199717968923
0.0590065952778638,0.0841315626840279,0.0147065463871483,0.0186385794278491
0.0591870042915066,0.0610204495082054,0.0155400863485092,0.0256417639947155
0.0504125791732864,0.0625342964762643,0.0138220917618771,0.0196560735142773
0.0557136031555996,0.065790722047857,0.0171372591883226,0.0246422568945051
0.0716162277588137,0.064538506189957,0.0167144063468666,0.0184533295688999
0.0663357770705194,0.0847883509980733,0.0164858015009023,0.0275967201970572
0.0583461782789173,0.0830442250156832,0.0163843723475408,0.0234833783510412
0.0515721523072362,0.0634546233243855,0.0140615862105391,0.0197253638978965
0.0633555849286112,0.071268745205309,0.0136047916655731,0.0202810038905796
0.0518231200030378,0.0710424116446501,0.0139460335408097,0.0210532606268534
0.0500121945908508,0.0690155952340798,0.015945598640644,0.02494409603324
0.0676125956977269,0.0828007444483896,0.0151999469845597,0.0201923578941052
0.0553309691454105,0.065114202096376,0.0126468484233249,0.0228960190578505
0.0544596698024558,0.088822724283681,0.0142798832448585,0.0159757044597115
0.0620413326659153,0.0733307511341934,0.0122806461927934,0.0240674916199836
0.0468799382243321,0.0696620328904605,0.0155975853692649,0.0216727238458136
0.0560273372692351,0.0545280713507641,0.0132411572488049,0.0203992072868398
0.053253362651396,0.0688741295176158,0.0148247176477332,0.0207859593149669
0.0470245798928536,0.0539032273451381,0.0132401870284685,0.018864593543208
0.0387345885370508,0.0538307393944794,0.0133817847749903,0.0218071861933119
0.0468891220094897,0.061534011685309,0.0149647693889124,0.0189863425256426
0.0399941593754727,0.0553560175760049,0.0154720708589488,0.0187900302618514
0.0493861881723966,0.0542338277672133,0.0129084855319672,0.0177563161983186
0.0466715495301105,0.0586529772500897,0.0129277769104229,0.0222530407025803
0.047720969124555,0.051146491974447,0.0135130580815177,0.0179787493818884
0.0469702590757889,0.0658898581389429,0.0134491893514575,0.0173454972674284
0.0442584403678927,0.0589163840414105,0.0145741055201049,0.00503260478537519
0.0509848817027695,0.0572243483672175,0.0170777374490249,0.00474135645791406
0.043112090986047,0.052945194746394,0.0173915824588412,0.00443214845784006
0.0464532360775101,0.0571348278167722,0.0188764501338121,0.00563911832704611
0.0410855531331573,0.0550712775860479,0.0197923729674332,0.00616475762966337
0.0441668425195232,0.0501059866776029,0.0161560791371577,0.00464930535156072
0.047108873385743,0.0536498046011869,0.0181063294450955,0.0033051678359661
0.0496975028914599,0.0513263902971305,0.0145307731727788,0.00447516907971387
0.0435430030981832,0.0511021087634391,0.01781607208095,0.00564300906476371
0.0519670203840606,0.0487341912843642,0.0185244579854406,0.00463424627759428
0.046125187579616,0.0588996458908453,0.0151077304870063,0.00438520884347132
0.0426962898223318,0.0555795583307085,0.0203195853370394,0.00412630343681957
0.0489938856728684,0.058996244494811,0.015852490313101,0.00480656485952632
0.0554681027858379,0.0537375463712348,0.0172229330026877,0.00503487818655559
0.0392329906592086,0.0345119285313488,0.0120306191847763,0.00497942151833255
0.0477552600116012,0.0557326815022731,0.0197603269205887,0.00722037000176403
0.0439051041818587,0.0466326131114681,0.0153438433226197,0.00376838575273779
0.0561733768296926,0.0475963342946,0.0167615108629944,0.00599069711529095
0.0411192002307435,0.0434534777934685,0.0129113665075227,0.00422063377724071
0.057818205269376,0.0496362067082157,0.0154687243271976,0.00633646989871664
0.055566029916543,0.0576872648686992,0.0198610076299527,0.00747853563888263
0.0681099601015174,0.0673411148688629,0.0214114549550693,0.0113272523424136
0.0701379948483516,0.0663624367704782,0.0187400429861043,0.00754259366080395
0.0667756444487933,0.0792046223220931,0.013481716333996,0.0122917153716127
0.071495818864453,0.0656490535456086,0.0178842187534417,0.00732739915649641
0.0600687528086617,0.0903410054282643,0.0201123288621441,0.00798800564926363
0.0569598808993763,0.0608369167934588,0.0138334962931939,0.010386338319504
0.0622055894507579,0.0667229689038911,0.0199544530145342,0.00799467444617647
0.0738488027936478,0.0785769641771064,0.0141093456951709,0.00673894821136875
0.0638798512642986,0.0718736960178925,0.0165617912993509,0.00494650517771721
0.0746295946606277,0.0738262294993357,0.0195970169635405,0.00711949361079642
0.0655850999773571,0.069057254379322,0.0130042184350071,0.00616737904451744
0.075484449891266,0.0820469241784503,0.0199878464770008,0.00848754655930277
0.0771398072762175,0.0692431565964376,0.0209086711368338,0.00909840933162807
0.0878005162977053,0.0727183607835831,0.0203413342266428,0.0142268714253802
0.111258915001842,0.107447935817331,0.0261506344492026,0.0223599929792442
0.101536563340806,0.0697061642922739,0.0217141245463613,0.0245049679209476
0.0955633039338384,0.100232734417888,0.0179013573144703,0.018959383649547
0.0679844156160306,0.0919917470898159,0.0146587739711013,0.0187086092098184
0.0843076201693437,0.0821592872649038,0.0184162452828627,0.00899237893192428
0.0626840220052055,0.056221187025004,0.0156662874535315,0.0101530884522677
0.0694829965958863,0.0864518904435791,0.0214473769418872,0.0119147021012191
0.0706557423153024,0.0757196714400469,0.0134308404598114,0.00701170946228247
0.081772258194716,0.091212511270292,0.0153346728069981,0.0111913749242092
0.0749842267961548,0.05423428984431,0.0139992821372193,0.00913061264447141
0.0689624174719959,0.0652122697256953,0.018548758325602,0.00771462126165196
0.0549013571552009,0.0587500061541091,0.0142795984418557,0.00893372127346797
0.0500305983060542,0.103486075838624,0.0203421428751969,0.00328758773131287
0.0702466602563374,0.0603844825329294,0.0195573577421222,0.00533498129817709
0.062776379923241,0.0635204313965351,0.0154449442630121,0.00549990793494002
0.0602399770196642,0.0860744100740271,0.0154056213412369,0.00368668285099348
0.0736554150614384,0.0669423242572356,0.019301327425873,0.00353068445191134
0.059002172270517,0.0697965342223998,0.0215801921868683,0.00552347669978157
0.065187135728554,0.0601794817819396,0.014947635111944,0.00555156060728196
0.0674621661084533,0.0709869790236794,0.0172835840151871,0.00427728584875987
0.0624528060569403,0.0749977076195968,0.0175801935070174,0.00253212321783141
0.096180216649462,0.0924711105909678,0.0210884651666296,0.00529973665019593
0.0669501249095007,0.0654758594486293,0.0208716671040295,0.00642087425772113
0.065729422330083,0.0784015059348103,0.0207333127284679,0.00460158279176647
0.0542580409179119,0.0592057849009787,0.016764039955275,0.0070978538527114
0.0176868002188997,0.048673761451859,0.0175924831416522,0.0120033636713483
0.0240049435031694,0.0438817533590486,0.0161128960381602,0.0108107324198152
0.0182355493540281,0.0429299574642044,0.0164868333200544,0.00969790799193999
0.0179751659304032,0.048980139938533,0.0149890100806028,0.0118025304287382
0.0197851962735861,0.0439797231003858,0.0126158211793396,0.0104971150030292
0.0259418603118745,0.0577863620841024,0.017859014126005,0.0117121442041508
0.017607572470094,0.050509254838901,0.0128454939936612,0.0129523835118171
0.0189282951956104,0.0648539416367766,0.0180266967691542,0.0119895840287439
0.0164249358194192,0.0487841129194092,0.0130103737297356,0.0104657874763418
0.0188188440974713,0.0547758922088432,0.0156373106372104,0.0107986214191029
0.0196947714149739,0.0633745733539429,0.0175079037845148,0.0135361864421664
0.0167939344876856,0.0488452466463252,0.0206586449998763,0.00888222245492696
0.0272470278837666,0.0519149530075892,0.0227945756143925,0.0148084942010253
0.0265579783350523,0.04867551380128,0.0213945918993167,0.0157294751779567
0.0258902527588417,0.0491126484403249,0.0167520816751025,0.00842705573720407
0.0240428633232516,0.0438718083237647,0.0219790373460021,0.0139807597061726
0.0214009854646866,0.0431180092880512,0.0164213293720022,0.0111309786510704
0.0209910753345362,0.0491627254760051,0.014460772777753,0.0119579821446421
0.0250485183892016,0.0503351921896708,0.0161883387513952,0.0102165713355113
0.0216999713530801,0.0518709299539477,0.0149268216733596,0.011461337432026
0.0234283398510013,0.0553900172738595,0.0202263556297416,0.014674677430318
0.0292169533388871,0.0549408749614581,0.0231144912278454,0.0137818691608782
0.0270127758997008,0.0639856987492003,0.0261980152754956,0.0170505834635244
0.0288432159169413,0.0486606585378397,0.0218908531840696,0.0144497406433073
0.0197345300492669,0.049219972721576,0.0246578991885211,0.0157055694203987
0.0213176926431033,0.0575913590898686,0.0186400776052458,0.0170050355579509
0.0277563348589029,0.049488038748065,0.0179015449314323,0.0170481187610551
0.0296905290832486,0.0542457991518949,0.0219267616449337,0.0120832964677996
0.0388665874918334,0.0701819698668787,0.0161813636615269,0.0124582987934145
0.034246799875123,0.071043402851125,0.014899975683413,0.0137447807363678
0.035707968183561,0.0612928172092903,0.0163763142137634,0.0156974580791662
0.0391055228331006,0.0651849308751816,0.0160232553084819,0.0144131810288059
0.0435706587647099,0.0747375122409079,0.0233708429704477,0.0135449775072754
0.0420528925688496,0.0643625110363058,0.0254279428418188,0.0116810135060485
0.0428291774644105,0.0664133817580242,0.0200380022986474,0.0157599150560125
0.0374087867189226,0.0647842897158061,0.0184306782536887,0.0109715288133158
0.0375449889163662,0.0663070054383693,0.018902408493271,0.0117975845434773
0.0506939200453348,0.0752743418946806,0.0197251371205049,0.0154497149977462
0.0512169946506446,0.0775195210236353,0.014922563396719,0.0127343303811929
0.0501350717952851,0.0944893147690132,0.0174626952250546,0.011261612151583
0.0438990111345177,0.0987462318455687,0.0175060444262021,0.0201159746514413
0.046381275090945,0.0688894022120308,0.0164522258940507,0.0134289315915756
0.0628367870232784,0.0751248927462226,0.0187147269609236,0.0145397877730057
0.0647647653872156,0.0742712627420682,0.0179439522142564,0.015157128052885
0.058783210619342,0.0722748740897638,0.0165486006125425,0.0113927128333264
0.0523234187201058,0.0582953026063246,0.0231262226500643,0.0155223158464176
0.0539894444639473,0.0824485418887744,0.0226389752074004,0.0091893463477733
0.058236223771753,0.0701445634185631,0.0190037792785734,0.0118797437416603
0.0535275469858366,0.0716707645747587,0.0180693819753811,0.0137991392228164
0.0595918133365205,0.070937266638768,0.0220908383485293,0.0133371937855922
0.0477272664190833,0.0795143846460887,0.0155470122009152,0.0169685311165265
0.0631837514012997,0.0748041409350048,0.0226697533198971,0.0113593560890669
0.0473410932076555,0.0888920409500554,0.0171945108402133,0.0102348794887508
0.0585981713708217,0.071389938742289,0.0200201257014355,0.0137398277990507
0.0581675707690857,0.063693543153486,0.0192556271334781,0.00937009615191496
0.0479227552739359,0.0771018969987784,0.0156080871427839,0.00624734760551663
0.0576129876155274,0.0778826028097816,0.0221570289251261,0.0084646705560849
0.0633381724291842,0.0756682749088139,0.0145989394099953,0.00969330600826003
0.0543571569582135,0.0703130029563674,0.0156649178896124,0.00615795431235395
0.0437405478209025,0.0816450162224292,0.0181465589337249,0.00519334712585969
0.0233107648724312,0.02676421566457,0.00838794208546832,0.00294114186920132
0.0149676784722655,0.0256863457370141,0.00874952261770589,0.00339974827040519
0.0169301169897693,0.0268516083399406,0.00839939925922783,0.00289859670366753
0.018696892263408,0.0288547295877202,0.00865108171358387,0.00254644044294374
0.0192152483864785,0.0255549923187307,0.00808241444926448,0.00326431517624055
0.0198150006041254,0.0247662769700136,0.00761156439409147,0.00330713083560138
0.0176953534343556,0.0241012194537873,0.00737323138242134,0.00298352971992571
0.0174376295739857,0.0248989315554669,0.00967185788878301,0.00311136836261473
0.0218518173039709,0.0283111077370887,0.00892802417260899,0.00327462805768564
0.0191626112648665,0.0232155138462348,0.00859286263602047,0.00277642242120681
0.0225647002570229,0.0244569588417904,0.01008775205661,0.00378785136147042
0.0199494485954866,0.0246074547806057,0.00768192039077629,0.00415765319386589
0.0190354910085987,0.0250665919805956,0.00755455019311558,0.0033388867652812
0.0187244541508308,0.025940771622991,0.00768594004949791,0.00276399068528565
0.0184707020778544,0.0279651821425881,0.00919280680152991,0.00285979500551382
0.0187663121259365,0.0232901998320212,0.00784629056974413,0.00361073667177298
0.0170338240617178,0.0243165852515248,0.00839703483072636,0.00297476105742517
0.0210987114531784,0.0240542018177385,0.00715496000018942,0.00277167260231612
0.0199095760712179,0.0330847686436719,0.00728396606962284,0.00300308133507276
0.0181564315081333,0.026745317457948,0.0058301746389565,0.00233977643238271
0.0161916434669417,0.0260658419769333,0.00605832033710207,0.00302477942847459
0.0218010369555691,0.0250414713764708,0.00600071336190216,0.00285772977635459
0.0138163335427063,0.0221916797198725,0.00711986857151667,0.00333298256296982
0.0192014239118475,0.0221304791741571,0.00536841875923963,0.00208835920526418
0.0157110790388264,0.0195588849464745,0.00542305887118699,0.00307236316934911
0.0156324770575791,0.0200241023189549,0.00541211033074118,0.00202583995830781
0.0187042292459887,0.0224442857971937,0.00607756793254968,0.00255132121278578
0.0190392263603127,0.0221649017181507,0.00772852395120337,0.00393954108502434
0.013999036392346,0.0231430060215801,0.0069752545105224,0.00452468084140443
0.0185560010478023,0.0211624630854696,0.00689245861893498,0.00375212411706354
0.0163434279603108,0.0232476634284159,0.00857055135073716,0.00465607665162831
0.0175232287352947,0.0212895834041177,0.00720440928557667,0.00538058894420208
0.0243255696638187,0.0228837308614334,0.00748348435566712,0.00386253296054013
0.016519854918869,0.0231692582965693,0.00830514715577409,0.00443355002434273
0.0205421492397098,0.0219108136981734,0.00689120632173626,0.00451896738156168
0.0169761314354144,0.0241074200703853,0.00695965346546012,0.00433923518358804
0.0184862990647279,0.0256000602657325,0.00789362750940487,0.00375467066584102
0.0160511348280271,0.0283306414238234,0.00821494584086763,0.00492874310447452
0.0186590210605243,0.0266372578060014,0.00719284629245105,0.00426315912926348
0.021176041098105,0.0283989695990365,0.00860716414397041,0.00487746378580694
0.0215222703464959,0.0298908382972627,0.00739279035997473,0.00464818693055648
0.0224918383786504,0.0374517072038313,0.00801253020712754,0.00405493541947726
0.0213296315783033,0.0353310258720111,0.00699247230191044,0.00516579799624057
0.0213169589200188,0.0353979424217162,0.0078950788437805,0.00636751771021636
0.0261403185315814,0.046581093977655,0.00797876701461305,0.00603876976358183
0.0284179849678105,0.0419256292506124,0.00748834882193017,0.00833759999750865
0.0298462685494259,0.0382516033577507,0.00915513220942955,0.00679342005778875
0.0283352445076459,0.0423297599944455,0.00756404650916319,0.00795435954559618
0.0239350893850753,0.0302986982669776,0.00860562350207814,0.00860994129765245
0.0438752745714294,0.0431335855469807,0.00986629152531441,0.00674863515396782
0.0340940086578443,0.041709310217724,0.0122861341944668,0.0103009725865559
0.025696209865573,0.0421733937783725,0.00985625394832931,0.00769844699221895
0.0256904350686677,0.0447787131447049,0.00966214255332421,0.0101478046720344
0.0249473612410014,0.0401002008686821,0.00894994145261347,0.00724316270989655
0.025888839687034,0.040845218490426,0.010097164048896,0.00843245258177041
0.0283057914682526,0.0344434069611705,0.00848216111149821,0.00816124963788676
0.024028771973895,0.0393262693274636,0.00850491577877614,0.0114120032641622
0.0276146664166642,0.0419005973766514,0.00918331994490407,0.0107503013663554
0.0212739264963724,0.0351360615766634,0.0081425404050322,0.00785754965743021
0.0211906486348453,0.0454093249517843,0.00862777824335648,0.00683934275973819
0.0187376891112779,0.0336629503508782,0.0118578119944854,0.00579570624778954
0.0214195617463746,0.0349227012431444,0.0122671951189581,0.00526271741172547
0.0207075148795141,0.0375108708723648,0.0114327388881537,0.00711268059905934
0.0216701194659225,0.0416615933280396,0.0142106754942633,0.00437609122317717
0.0218926834887215,0.0354532759435214,0.011701344553132,0.00553872626230208
0.0209429688387414,0.0305127042422076,0.0110050961228914,0.00632791140050811
0.0180454324109519,0.0316848746713096,0.0123662546390924,0.00628513528890687
0.0202998429835578,0.0313983697745893,0.0158477496547545,0.00552066909837028
0.0189908482678253,0.0334684141103426,0.011540249868572,0.00559700862070975
0.0159574367061822,0.0361698146366047,0.0108428401525026,0.00472801422187188
0.0173757959452517,0.0295250192885294,0.0120625876881607,0.00740170825382707
0.0180347955648642,0.0292603888822722,0.0106884234969598,0.00481312278995073
0.0144274231909905,0.0282512935638153,0.0109814539315016,0.00518005785250615
0.0140464750601375,0.0267018582345124,0.0076197413533497,0.00557637105068064
0.0179176676132475,0.0315266357091754,0.0114056846671132,0.00588774468253304
0.0183886080947628,0.0325345359739807,0.00802481938499973,0.00522136801923293
0.0166094154392264,0.0358868115609373,0.00828752639564615,0.00512577925156092
0.0208619150498578,0.0268014294010378,0.0105989987095558,0.00282619918804489
0.0259976048187178,0.0404915258740986,0.0121466739888929,0.00500711710639755
0.0344224860921228,0.0367440833498705,0.00966549914456808,0.00968348703080544
0.0287700997561228,0.0354942066046026,0.0133427522139166,0.0121575022438669
0.0257520985560019,0.0340100044049972,0.0178102104388328,0.00606630595706766
0.0246886002405832,0.0414923462374076,0.0144606052281031,0.00454714590179072
0.0266768897756478,0.0338655777182576,0.0124284662016531,0.00350127438453059
0.0225859166015371,0.037253552927664,0.0140886953906984,0.00261500582756954
0.0280517095931301,0.0358932606168915,0.0105174456185611,0.00490866893367273
0.0282987147788364,0.0336940845629125,0.0102324101181206,0.00208284400303736
0.0374075571906506,0.0331344528201175,0.0104017877976647,0.00214645950793897
0.0246959097979904,0.0337552063756906,0.010608180285953,0.00187448873191737
0.0316478908165944,0.0241732982643116,0.0109482362816562,0.00170362024150097
0.0292784451019519,0.0332883438953171,0.010367320906519,0.00258944120593902
0.0268164889087626,0.0338297839008022,0.0138458259118192,0.00316266804114632
0.0252181349451784,0.0271693932851942,0.0120140595212238,0.00269074360604148
0.0267566838600365,0.0253142350796115,0.011339554963324,0.0024307662106672
0.0372905888395507,0.0313618782620097,0.010175847075912,0.00263010623529298
0.0310549537859524,0.030365993950723,0.0126400492483755,0.00267190743040697
0.0326739338176288,0.0308177961957157,0.0113654376716077,0.0022124563404038
0.0335355784027248,0.0328463384677902,0.00984298967191383,0.0023720466562514
0.0331126321178591,0.0300970892810744,0.0105078707039854,0.00204046360312629
0.031160568318606,0.0322285235180716,0.0125502977301615,0.00214409810085733
0.035022307733479,0.0283677327496998,0.0111354493541512,0.00158347135321263
0.0297892377667964,0.0217134833775848,0.00801385411396961,0.00199106288674636
0.0313174186732529,0.0254865582760511,0.0109129547719104,0.00214061097909847
0.0440790066698813,0.0307194651932386,0.0119887929099675,0.00152340582434311
0.0379215054931851,0.0373384217296606,0.00833938230194796,0.00190783911803323
0.0267966746928169,0.0325486877905151,0.0110821792263922,0.00181624126338001
0.0322605731534323,0.0294876590609401,0.0102335995539225,0.00221371071699766
0.0354847097817852,0.0303443175589586,0.00746269750101138,0.00191308169946704
0.0309209237908362,0.0321299069037313,0.0118735356181412,0.00180343510554332
0.0306838026216421,0.0310380090862585,0.00970130428090608,0.00189987105272423
0.0309364996395681,0.031545791287753,0.0104485441933725,0.00163340365974368
0.0377501290358179,0.0252931952415283,0.0105735354896115,0.00195628641967126
0.0365914015024934,0.0330836515933621,0.0134253581636246,0.00248674632916661
0.0382425519811192,0.0311728281555096,0.0100544999351797,0.00214909550891601
0.0315594235097997,0.0334011937893859,0.0120954377850866,0.00252319133959856
0.0350185133437632,0.0298938148049482,0.0104958161083173,0.00177827416624527
0.0332907129881034,0.0334494723692109,0.00990428867793098,0.00165891582196072
0.0282404924378871,0.0314449366858217,0.0109131258043774,0.0015579694636531
0.0261200599823406,0.0277176964728388,0.00811083759246195,0.00165238715690055
0.0191738280528216,0.0266458063410986,0.0108925142114244,0.00173573658720958
